ppg_mean,ppg_std,ppg_min,ppg_max,ppg_range,imu_mean,imu_std,imu_p95,imu_energy,acc_rms,ppg_bp_low,ppg_bp_hr,ppg_bp_high,ppg_bp_hr_norm,ppg_f_dom,imu_bp_low,imu_bp_high,imu_jerk_mean,imu_jerk_std,coherence_ppg_imu,ppg_entropy,imu_entropy,sqi,fusion_ppg_imu,hr_candidate,phase_id,sqi_flag,motion_weight,hr_cand_weighted,ppg_hr_smooth,artifact_ratio,hr_true,phase
-4.115033139231294,-1.0787818086692382,-3.792745141933332,-3.740256914769099,-1.0920682695319968,0.2099627034095222,-1.062383354384978,-0.880296285476169,-0.15292837603910087,-0.142913743754238,-0.3420453935702032,-0.10870488459253817,-0.09370819462199652,1.774760372539571,0.6283783781599586,-0.5274542134461723,-0.5272400130127377,-0.8420972322714827,-0.8451589451850647,-0.806957865539462,-0.27272233683349384,1.4130387728185256,1.7994312221848745,-0.28543325190740304,0.8009887361048069,-1.0,0.0712470499879101,-0.13252226300296077,0.7799673017919746,-5.713595962703782,-0.08723751977057627,73.16168898043254,0
-1.803287037198977,9.142319445116726,-3.887120672464481,4.266793397824954,9.037126553779453,1.9911412144903826,1.8967455751068765,1.9731496512144087,2.3570338084201885,2.3413582524241034,12.783458812390029,22.595990343906585,24.450751038108994,3.8178120189139766,-0.9913959928821482,1.4311088329291781,0.6364414979270511,6.29944144963924,7.357792398904438,-1.2587203776191076,-1.8737636000181774,-0.7147664737374247,3.5317099948913224,2.0946412728538286,-1.0115343467380704,-1.0,0.0712470499879101,2.3222312229578574,-1.0057600247142027,4.974695900854245,-0.14089229877216475,71.23478260869565,0
1.5476456571842907,1.0326870894944025,1.0143170224304439,1.5632995182014848,0.9980031469035361,0.6580674544832945,1.4685507832997236,1.8066774639685261,1.0563499255962105,1.0735712899391279,0.7356680402675868,0.32084757901102073,0.1758545428848155,0.9413402912509639,0.2234347853994319,4.854190168413783,0.8939669083559248,2.0227484512317866,2.8418865869268335,-1.0326021055851873,0.5876215747207753,-0.1667831115877119,0.9550870805960692,0.9319179633784572,0.3478579653940876,-1.0,0.0712470499879101,1.088833248078573,0.33353547016543034,2.235755383952414,-0.13669283011076275,80.02526049889485,0
1.2446942220451473,0.1520486914188792,1.2827352766241316,1.3062164977980015,0.42104614478130453,-1.0915284996565113,0.40984363609100244,0.27172535184000723,-0.7727130738141794,-0.7816870525086541,-0.07809625058027167,-0.014350933160066389,-0.03361313211221191,0.771569568343627,-0.9913959928821482,0.18348559820334404,-0.13819791133332474,0.9430657185491605,0.7250678777111964,0.11524911649015325,-0.9514231092635629,-0.04444175808009758,0.6829345194856916,0.020406626214724825,-1.0115343467380704,-1.0,0.0712470499879101,-0.789515627055415,-1.0057600247142027,1.1894509247952598,-0.13564098451119777,85.54720133667502,0
0.6259824270076169,0.859879885176994,0.200230134727975,1.262731694304895,1.3933499351134122,0.5762288105263953,1.4881275281813486,1.513638584477282,1.0101059058371398,1.0277440684427515,0.8748908497924854,0.4620509600338129,0.2864503666579716,1.2105729026634604,-0.9913959928821482,2.689033881039651,1.1310039148614968,3.1946655149577343,2.208368341051402,-0.7249873536629489,0.046052057176766185,0.8822743280959886,1.1346595695020043,1.3194632438818725,-1.0115343467380704,-1.0,0.0712470499879101,1.043509722405162,-1.0057600247142027,2.431958046055542,-0.1372127462599806,84.42001735608909,0
0.5862554815179194,2.827700252200393,-3.028837545747236,2.881718885571477,6.486307051862036,1.3998796411400312,1.701750055204355,2.0672028395669133,1.7673449520142872,1.7715573134493836,2.7480583146700814,4.679115857971902,3.429383165347917,3.700355891223845,-0.5864524001216215,2.1743772053871355,1.1495533286443709,4.379715240879865,4.1518769263875095,-0.5047576884905429,-1.7323749996211135,0.663682065352447,3.4330893644448333,3.062592548849234,-0.5584035760273511,-1.0,0.0712470499879101,1.7727105497808555,-0.559328193087658,3.9001980334403776,-0.14050686466966775,79.55207166853303,0
0.7464316606089526,1.113027147783885,0.20475303751192064,1.3201456448896596,1.4610483853887768,1.2351807466245344,1.6169533279282853,1.8973982536322207,1.5836466238967377,1.5923908620646836,1.0328316989596111,0.48208566501381,0.5793426528693411,1.0285147438607156,0.2234347853994319,2.586883748170994,0.9262809349860367,3.671879778162061,4.486905627831193,-0.7446322310435785,0.15009919054837684,-0.06331848853405596,1.0412301722751982,1.0119616877275557,0.3478579653940876,-1.0,0.0712470499879101,1.5983073104649017,0.33353547016543034,2.4557743240526415,-0.13778646381706583,79.11408704609838,0
0.2773142857099918,1.1732476938343914,-0.214487998492868,0.39740027014653384,0.7017379727942809,-0.020591675262088747,0.5912281439874545,0.8553540668448206,0.06764809644548421,0.08185412927527203,-0.11329908952375844,0.009766610187846168,-0.02518351826309306,1.3954157194608725,-0.1815088073610948,0.7161312643379787,0.07201606085992315,0.7634044610440109,0.5412849508028462,-0.8883562954857935,0.7064143001804054,0.5177582853528223,1.3860956403747136,0.34028224499874105,-0.10527280531663176,-1.0,0.0712470499879101,0.09604739145711495,-0.11289636146111386,1.3465772467035668,-0.13443615884302096,80.17582417582418,0
0.09622091211239887,-0.4467743319428602,0.1700655783657548,-0.017268013968957004,-0.18296996845398436,-0.1241287833567168,0.9280883151007235,1.0259718693058584,0.16009583209011966,0.17566782716380158,-0.2703658856474315,-0.07876016910927594,-0.06625950574265577,0.9981896595013479,-0.9913959928821482,0.76387167969516,0.6231477444921674,0.5295050518080973,0.588345837999437,0.9886760483900131,-0.5604124941343285,-0.1584271503496144,0.8757783044379784,0.7269492248243926,-1.0115343467380704,-1.0,0.0712470499879101,0.19105275577252018,-1.0057600247142027,0.39722479883341627,-0.09143467163367142,81.29373713613643,0
-0.03451285008732808,0.44194496778350467,-0.10405082106754948,0.9348713636310331,1.2708914110374658,-0.1857522815844663,0.36825028168851887,-0.051694520667722996,-0.14512341981368637,-0.13493787203791385,-0.29073724036170445,-0.06994245946176998,-0.05373232713871808,2.0720193659509207,-0.9913959928821482,-0.2371804882212927,-0.4254283456805701,-0.13326055596799646,0.24086742595415508,2.9227429268142253,-2.282877220167809,-0.990098884769839,1.954923051992268,-0.15061433632700977,-1.0115343467380704,-1.0,0.0712470499879101,-0.12438850215570883,-1.0057600247142027,0.5753758218233697,-0.13756697722222486,78.8418004738089,0
0.18199639535815387,-0.013721193809171599,0.17918261074914132,0.25649226378411316,0.1516373918142224,-0.5384239186454782,-0.049697103968406264,0.023406869777802947,-0.5384424943632673,-0.5389679179323954,0.017991043517666956,0.059034603595673696,-0.036090170223233076,1.2251682355912008,-0.1815088073610948,-0.20563501462044176,-0.28636763778080127,-0.1141644668974871,-0.043165486941732355,1.2488683914443746,-0.17147482379833154,-0.030642346686929067,1.1829251925803899,-0.05092466381912514,-0.10527280531663176,-1.0,0.0712470499879101,-0.5385668215049328,-0.11289636146111386,1.5866255709726118,-0.13910593748320974,82.79260780287474,0
0.0552155123504561,-0.5221582650538004,0.21575758050593014,0.11297085845091713,-0.06301128735227794,2.1494929247407764,1.8623124480408648,2.1192773575042403,2.448465718269392,2.428992280270011,-0.27687299898812473,-0.011225078850902235,0.019639052480578054,3.4829541219506743,-0.5864524001216215,6.719806749743026,1.357613625345809,1.0377352340560928,1.7277066923111548,-0.24805948035278788,-1.1073305920370857,-0.43428541567153833,3.3945326984645328,3.3086630584885075,-0.5584035760273511,-1.0,0.0712470499879101,2.4060628871247727,-0.559328193087658,1.2119492591171661,-0.11603145132026024,82.47928812519177,0
-0.1075417862514415,-0.13926559523216897,-0.044718883760042016,0.7583456929452624,0.9932737142495685,0.38574115881503773,1.0607855189816007,1.2789748287010343,0.6021208663878065,0.6210968454778176,-0.08605704272579069,0.15939898117991794,0.14905239395561987,2.782998238921882,-0.9913959928821482,1.7400844413100405,0.46941089746058917,1.6552167510887,1.3856821418146124,-0.7289988838201281,-2.2940355176828686,0.8254253074005952,2.6461000266375745,1.3268114696072957,-1.0115343467380704,-1.0,0.0712470499879101,0.6390060140898979,-1.0057600247142027,1.9103584133144806,-0.136165523692672,83.89513108614233,0
-0.002533431846277823,-0.3294311156226352,-0.041015089354291254,0.2440718831085728,0.34493606071424043,-0.3280843125301874,0.33306257905621256,-0.06328262391840604,-0.260757675561621,-0.25327554953303977,-0.14548605503340484,0.015069257822726747,0.006967450739908499,1.7400378641947511,-0.1815088073610948,0.24379824524989022,-0.20544894638746147,0.38005940013086864,1.673445330280764,1.829485442254597,-1.6637659888134473,-1.6877170298090216,1.6413196644747203,0.09640660925867058,-0.10527280531663176,-1.0,0.0712470499879101,-0.24524338325748327,-0.11289636146111386,1.376803091273464,-0.13760523274361303,86.29213483146067,0
0.2302136558630682,0.6805065561077932,-0.14721427125764494,0.5043610321463063,0.7720376110293276,1.0592613022498234,1.3036022081409033,1.592925187493742,1.2412054333824918,1.2562300691132322,0.6590287348510859,0.11217130747512022,0.09129635626903472,0.1399995467860122,-0.9913959928821482,2.80729445970738,0.8174096235135417,0.8674417579233922,0.7357913864635028,-1.1594973404303663,0.09800134867556896,0.6527019730175114,0.13993629974303873,0.42104759173723394,-1.0115343467380704,-1.0,0.0712470499879101,1.2689624448299355,-1.0057600247142027,1.7765937797454585,-0.1331097634880926,84.95067264573991,0
0.529706947466776,0.6392531585004579,-0.15608200978679823,1.4042054880733599,1.908722967748623,3.027163878034032,2.695544045009185,3.3661329783872302,3.8577384474342344,3.7566218612074564,0.15301670582349503,0.44869246372642557,0.5620939596400651,2.8756532398512027,1.438265563681012,6.943844083144389,1.5026800395539,3.9487019487578117,5.25297181636741,-1.5231281738783222,-1.8365992370446589,0.640872633706504,2.7838916122105193,3.0758605862104096,1.7072502775262457,-1.0,0.0712470499879101,3.6545101868342034,1.6728309650450623,2.415608935571767,-0.13626341160351688,79.10112359550561,0
0.873951180674595,1.3342517825707834,0.31016872444482707,1.489666328643455,1.5736088825532053,1.5137149634636835,1.3145854172239375,1.6966470808852363,1.583678458550923,1.5924219811063527,0.8112531732504741,0.3301512948678761,0.4223525164193694,0.8361144207554004,-0.9913959928821482,3.177398027727952,0.756880846431374,0.9072997305765289,0.6012542940227272,-0.37618212471222573,-0.11737340441033771,0.9400730775358145,0.8225271858032125,0.7586434079512951,-1.0115343467380704,-1.0,0.0712470499879101,1.598337670065044,-1.0057600247142027,2.2505475666825006,-0.137185929855676,91.72981878088962,0
-0.2900567190300308,1.3182150273741715,-0.5839771038742545,0.7620637244706953,1.5094575067683165,0.12935747944320883,0.3733525775507882,0.4197655559119442,0.08367047789685898,0.0981296795834926,0.38105495718804017,0.10876723100630772,0.054742659265291746,0.5224591633384758,0.2234347853994319,0.9919898385346108,-0.042874924568426204,0.2697425590906145,0.08430286050221175,0.19051870472959553,-0.6478331779333519,0.030585697010634783,0.544821902829511,0.04549273881490219,0.3478579653940876,-1.0,0.0712470499879101,0.11254629566988222,0.33353547016543034,1.7658719762454198,-0.13808625108080785,77.44889615699101,0
-0.5344887988347766,-0.36134716129365646,-0.5347237609593188,-0.45060728248390436,-0.05777512977109954,-0.06843664669995927,0.4864228317230675,0.5636185820042484,-0.012621242186142906,0.00021227534164231524,-0.16251790815527764,-0.008708597277091867,-0.004461512733568598,1.4984626087727704,-0.1815088073610948,0.4342684780250875,0.054207432808470436,0.6699342468586047,0.4549902529460583,-0.5785424323625914,-0.6329252278430861,0.21665655511125834,1.5002398306389217,0.3464546032101754,-0.10527280531663176,-1.0,0.0712470499879101,0.013179578740500244,-0.11289636146111386,1.2295435399217542,-0.13346074011862738,81.22686409307245,0
-0.3570583580735825,-0.04521434897019446,-0.22114770574166986,0.11817071413503706,0.35794200051265135,0.34842706079101066,1.3575205793953784,0.7380381070172514,0.7571225162203079,0.7760890090898619,-0.053476504515803214,0.03071415759789509,0.0857427299733009,1.2111435423294035,-0.9913959928821482,3.550311710543632,1.5950508444281797,-0.05569652706755461,0.03288495349240662,0.04312894241414423,-1.2816687575784778,-0.9511138402439353,1.0896590745658516,1.769104391589595,-1.0115343467380704,-1.0,0.0712470499879101,0.7936767618852191,-1.0057600247142027,1.4589675319255198,-0.1213342802835105,77.17156680312617,0
-0.5292838192189935,-0.19552624970973806,-0.5526016916486158,-0.17102747712580882,0.30973556910399597,-0.31181801700418105,0.680890070718053,0.7149959235626625,-0.09987474355367551,-0.08873114931542311,-0.023951719410260152,-0.031973775769770715,0.023479026841687237,0.22146598825911704,-0.9913959928821482,0.2550066643992597,0.21629617906450851,1.489416902985126,1.0154039712703646,-0.5144796538421876,-0.7323430333404315,0.8474130268865043,0.21049812027663653,0.13015403962196742,-1.0115343467380704,-1.0,0.0712470499879101,-0.07730045488314698,-1.0057600247142027,1.0467349124957626,-0.12846459320145778,79.02113459399332,0
-0.13827520858164646,0.08377065649308464,-0.5306282190683445,0.10995332561868174,0.6412012348234957,0.5861504967733238,0.6382857464388799,0.8433186233840977,0.5284930374910004,0.5472567521101056,-0.038099315223720065,0.063364937917476,0.28009347384220834,1.4012499841929842,-0.5864524001216215,0.693227783413093,0.08232522123801189,0.21496923513248722,0.13671618101215832,0.8713526924840717,-0.5343299794951314,0.07187957143849676,1.3802225264493087,0.35251766191277634,-0.5584035760273511,-1.0,0.0712470499879101,0.5651025952662012,-0.559328193087658,1.6042204522320442,-0.136390495087572,76.82194912832237,0
0.3290932503807967,2.6919586390102976,-0.6334085138279282,0.9638073481115761,1.8093035370298616,-0.4768878538792755,0.5879537624314366,0.688257565879898,-0.26081814138277765,-0.25333752533346854,0.5350257259232567,0.08022206318195063,0.26778441713926077,0.08988806250308667,-0.9913959928821482,0.059661068754186655,-0.06012611927735962,1.2724855144991134,0.9880944997889948,0.18405959303638122,-0.5167860740651594,0.5846892980813404,0.09217579976662704,-0.04984208444724901,-1.0115343467380704,-1.0,0.0712470499879101,-0.24530677566352496,-1.0057600247142027,1.6687373482559387,-0.1377700143546196,81.18393234672304,0
-0.03440507572230212,1.1830078057450597,0.04036154734898279,0.8044438954091442,0.9703697475396398,-0.8849632693710369,0.2524135341896887,0.2273989532232173,-0.6871001583359105,-0.6928049063862853,1.0008344251146313,0.07277824914352356,-0.02990209928995384,-0.30226586208025985,-0.9913959928821482,-0.39208513033932624,-0.3670176909910413,0.055320069866485355,-0.06407407398760165,-0.12231371835001692,-1.785131329163092,0.3842669847098465,-0.31930154912969533,-0.23079817785105913,-1.0115343467380704,-1.0,0.0712470499879101,-0.6974321931203483,-1.0057600247142027,1.6409882566313012,-0.13981907030387666,89.00662251655629,0
0.12444628000877576,0.6726827865173084,-0.16160208798767678,0.8358046830584478,1.2012674060387,0.5154761723790416,1.0881205466427437,1.1300369995209303,0.7121668389095708,0.7311994895609893,0.5873402394044548,1.0829295466440445,1.1294155159616566,3.192898378055664,0.2234347853994319,1.126279684241546,0.5322792038702755,2.7783802068241252,1.8435948599372773,-0.6535494271939069,0.0158995687104381,1.1698099421144363,3.0402800954883467,1.6079884688049777,0.3478579653940876,-1.0,0.0712470499879101,0.7489434466870598,0.33353547016543034,2.94012182217875,-0.13981201902484516,91.21668597914253,0
0.5390654718780461,0.4781922085089578,0.05610267357342355,1.2966250541526818,1.5725616510369698,-0.6238645897354562,0.5108537819597342,0.49162004099684753,-0.3994639267449687,-0.39571231116215344,0.23328221363769003,0.7431586819569367,0.6216730141606477,3.564456639949054,-0.9913959928821482,0.3258252231846696,-0.1138947291704696,0.6910478205088112,0.4574675143565367,-0.926556399872089,-0.8547806341733808,0.3745614330999924,3.3348420386495796,0.5168675617398346,-1.0115343467380704,-1.0,0.0712470499879101,-0.39120877690590405,-1.0057600247142027,2.7084098051132144,-0.1403326138293098,89.71475142624287,0
0.4893709732720607,0.46887560200182665,0.17448164092645765,0.7939364150111817,0.8299731610404305,-0.11052015733469929,0.8244108810135753,0.7983702311395008,0.11532932069934543,0.1302684839739352,0.16976132570101204,0.16783305095431494,0.016935437625723283,1.4917542322217907,-0.9913959928821482,1.0643156693473794,0.24594267933691324,1.1114458935995617,0.7642729869846362,-1.0643388104047344,-0.1762737757687994,0.46210688878275474,1.3407256447297118,0.5526920467414472,-1.0115343467380704,-1.0,0.0712470499879101,0.1451056490202889,-1.0057600247142027,1.9317400888079357,-0.13735338698630095,83.60808709175738,0
-0.22700741895613016,6.482821489707238,-3.7501515062671977,3.400411225626797,7.8208853834880605,1.7009095806220313,2.4022765402616666,2.309185412824917,2.575599872438495,2.5505329345915055,7.2518858803251565,2.4775282932484894,4.0020797813027285,0.6538779461907879,1.0333219709204853,3.582496325397009,1.791881074044343,3.3852638044884364,3.230651262688021,1.0879831416620056,-1.854941586134358,-0.6117679241084213,0.6287357451715885,1.425643914395527,1.2541195068155262,-1.0,0.0712470499879101,2.5220323124255386,1.2263991334185183,3.4750421482236393,-0.13980234051569157,89.37160589604345,0
0.771545752757082,6.881046941667167,-3.7759000000687153,5.592217752126921,10.593515276876559,0.5576076117092083,2.1538457819471026,1.0751786897329512,1.5120181914789135,1.522310947915187,16.719451074106388,15.305511539413814,11.604836336961293,2.49297345382045,-0.9913959928821482,1.2737118822224587,1.0936730785917284,5.138634948318754,7.536839593855012,-0.6425758304431279,-1.4221276893374895,-1.2380137031257712,2.3614138966535525,2.1423032129118265,-1.0115343467380704,-1.0,0.0712470499879101,1.5298775843488797,-1.0057600247142027,4.7073433680041985,-0.14082280667127084,79.60611557398289,0
0.7818690153001945,-0.46875846241640906,0.8362499836924263,0.2678888386772879,-0.4573446257077325,-0.9005966689594825,0.26711483837565175,0.058822008331528355,-0.6928092330518287,-0.6987254465766407,-0.2783185812036467,-0.09067902613209897,-0.07644214939032763,0.43128189695904645,-0.1815088073610948,0.06097716436527571,-0.13940889558596342,1.2347916313320968,0.8697183579152352,-0.6726687459256724,0.1729592849898889,-0.17223535820066327,0.43229389010950714,-0.03511910506173414,-0.10527280531663176,-1.0,0.0712470499879101,-0.7035592153250961,-0.11289636146111386,0.046915470203222356,-0.11321708869385709,74.46540880503144,0
0.8353833903479889,-0.465468469367331,1.011610403441626,0.3085716473976044,-0.5726752191409135,-0.6381958909584968,0.5485309328227209,0.544347269872044,-0.3932662201200015,-0.3893364878274256,-0.27838327860895995,-0.10244311955399937,-0.08720397918021186,-0.5169656229736149,-0.9913959928821482,0.17522422381814337,0.13427448017117125,1.1466267561452743,0.9938855382035405,-0.34459908209864165,0.7923586742773966,0.5678914215627772,-0.5216101287624045,-0.11763554905792063,-1.0115343467380704,-1.0,0.0712470499879101,-0.3846633014988194,-1.0057600247142027,-0.6826949459206412,-0.0048303157975018605,82.92156240076214,0
0.6328508143606997,-0.4333168239447405,0.7904155279212606,0.22170980944111407,-0.47176939530233364,-0.15086666326678652,0.7254051735676192,0.9294150628248218,0.03689964466551208,0.05060046352051276,-0.32085097836604365,-0.10503931273524833,-0.09219821561611283,-0.095670178505623,-0.9913959928821482,0.4172294222590001,0.2867851968001007,1.2969926275102481,0.7832638707287982,-0.4733236534255848,0.43764437400039413,0.8035296050513974,-0.10005959002406102,0.06287216552432501,-1.0115343467380704,-1.0,0.0712470499879101,0.06434522420065503,-1.0057600247142027,-1.0520177387518361,0.14504445677592734,84.98198661863098,0
0.37171909219332544,-0.5687683125528344,0.5410504468725407,-0.0792352060595053,-0.6125713617433115,-1.2319245572827466,0.00994760201638744,-0.15853771042599135,-1.0118977425853652,-1.0311293484190642,-0.3018796686210485,-0.10612395037599094,-0.09302368498362107,-0.7177989092609798,-0.5864524001216215,-0.29926361090039155,-0.40145279464158157,0.27452306757277567,0.047407824128489096,-1.004229387981392,0.30623456228100915,-0.012077879275798049,-0.7171631252499349,-0.26425868135730846,-0.5584035760273511,-1.0,0.0712470499879101,-1.049110396711367,-0.559328193087658,-1.2938700277715647,-0.07814679863513087,77.60711398544866,0
0.1715754245937141,0.19912732056927887,-0.05355100888144769,-0.104156794182878,-0.07980077327386287,-0.10834975917483002,0.46044559297304005,0.7414536946125196,-0.05223051957713135,-0.04013851026883357,-0.22845402498203427,-0.10467588714554436,-0.09287505422343055,-0.8989837397412992,-0.9913959928821482,1.2819974659575863,0.038198456923938376,0.7865197801085053,0.5286695808713344,-0.45715225285074096,0.7446521128613465,0.7775332136779239,-0.905320351722742,-0.23135099217934105,-1.0115343467380704,-1.0,0.0712470499879101,-0.027842285625413275,-1.0057600247142027,-0.9868312090367891,0.03982132356583668,76.01532567049809,0
0.4828634094510088,-0.3330064361867865,0.6445430097870766,0.20282328698221216,-0.35708065344361967,-0.752999772824686,0.1633454303521784,0.14120893113316044,-0.6248043451084851,-0.6282621510218498,-0.250664778514758,-0.10487379020809671,-0.09300029793939404,-0.8577169836050664,-0.9913959928821482,0.2556913438282025,-0.1576602244198296,0.22070303380940473,-0.004261028836428807,-1.4970025056937482,0.36765216279958773,0.3378455590896537,-0.8618215587490959,-0.24391020967679183,-1.0115343467380704,-1.0,0.0712470499879101,-0.6307008910253067,-1.0057600247142027,-1.0215632901508354,-0.01668011036223733,82.94220665499124,0
0.16957246908249338,-0.14444123556352076,0.10845438296240073,-0.16798300203614275,-0.31350230970348975,-0.0023704479155557813,1.1381237599447473,1.4458181222960593,0.366820185601567,0.3846229711040748,-0.24627925201728088,-0.10524685229908555,-0.09292736236942999,-0.8948584256621401,-0.9913959928821482,1.802328763621278,0.8390233930251112,0.9104139086637392,0.5621894718455549,-0.7372729214313652,0.7766533311671635,0.7666251628853755,-0.8992404628496711,-0.15188204153280999,-1.0115343467380704,-1.0,0.0712470499879101,0.4018333677055851,-1.0057600247142027,-1.0922050689323364,0.36779944071421206,77.19587628865979,0
0.15694477092468995,-0.8309842407317153,0.43157483145640746,-0.30862158582425675,-0.7963436020117663,-1.0040656738306966,0.6237302913686064,0.7491329185323502,-0.6186911504805717,-0.6219344211248445,-0.3122948495902413,-0.10661395276954962,-0.09305614646485262,-0.680773590464341,-0.9913959928821482,0.04455931316556157,0.14356512603751187,1.1270892159428945,0.7321657207797687,-0.02353888287754854,0.2117619347538914,0.5448363038166475,-0.6804185757459458,-0.16069549403152464,-1.0115343467380704,-1.0,0.0712470499879101,-0.6241647437047465,-1.0057600247142027,-1.4389453954328992,0.27187189991294325,77.43536711478801,0
0.26650680383930214,-0.577017883941076,0.3954984494080851,-0.1773858498794477,-0.5975723038978714,-0.1349814941456693,0.41280084478367424,0.43344133989131584,-0.09092500115068679,-0.07959853609697562,-0.31982488878925525,-0.1063430756810103,-0.09319295835893847,-0.46525302482192255,-0.5864524001216215,0.3825291990260706,-0.017940161046867468,0.8824846974858542,0.4955388923986348,-0.9028552367978548,-0.019658334425381632,0.5420927791714876,-0.46585265110349244,-0.14543302855623078,-0.5584035760273511,-1.0,0.0712470499879101,-0.06800038083125177,-0.559328193087658,-1.3550125652882843,0.13661736803412672,81.05540897097626,0
0.15993398342593515,-0.44995031936231195,0.34197149756343703,-0.1931470704763915,-0.5665607383525697,-0.8970169470554499,0.2669764733642064,0.22508884977267696,-0.6903271911805283,-0.6961513546791938,-0.3014145854813453,-0.10667400792323678,-0.09318147139737579,-0.8065687014735438,-0.9913959928821482,0.48610234248703477,-0.08782982883929921,0.6901525259546749,0.34170454791050425,-0.30934958381544375,0.6407725971591586,0.22689525860551515,-0.8084935019629155,-0.2267004179611562,-1.0115343467380704,-1.0,0.0712470499879101,-0.7008952322284893,-1.0057600247142027,-1.459021459028845,0.13748441873761538,84.57142857142857,0
-0.07289455181106587,-0.27338782151057306,0.06543338640329567,-0.35081316096069093,-0.501936419302284,-0.8544869195657916,-0.16328427904126555,-0.11080219709104362,-0.7933853169560914,-0.8031802882683395,-0.2939310299012398,-0.10659077371677375,-0.09343902893128389,-0.8446170432803244,-0.9913959928821482,-0.1790460486855409,-0.38709690093751675,0.10652636293950563,-0.06199855044394266,-0.6672272707869684,0.5217232327029089,0.4324367889489798,-0.8481185046493629,-0.2691621246157904,-1.0115343467380704,-1.0,0.0712470499879101,-0.8118156968831705,-1.0057600247142027,-1.4313503045244242,-0.05556907163897992,80.48205396908567,0
0.23859270307519775,-0.682458028703221,0.47776542130504923,-0.23779039103901695,-0.7513464284754461,-0.7788938435171896,0.3506378211647123,0.46415234886637907,-0.5751125321921897,-0.5768572354398108,-0.3135177082772913,-0.1065131145547758,-0.09327702242614966,-0.6405276559006134,-0.5864524001216215,-0.16950740395209296,-0.0538381291055727,1.1530288520235155,0.6496759267759555,-0.27407785623574704,0.8904726878908477,0.9254492224873715,-0.6386864788728652,-0.1896295937307754,-0.5584035760273511,-1.0,0.0712470499879101,-0.5776345372605339,-0.559328193087658,-1.4064960005906866,0.13703762235637765,80.0901916572717,0
0.15812168139670343,-0.44436479493568987,0.20970330118883754,-0.24673522050600044,-0.5082873717233262,-0.2091643023583607,0.8115590983146129,0.8588273199863654,0.03795176997543301,0.051670296928330924,-0.28114544578870615,-0.1026471048452242,-0.09262812957046519,-0.5055597150817772,-0.5864524001216215,0.16918260684475286,0.4174348912220796,0.9843023823446213,0.8172588179175488,-0.9875906853324865,0.29194751718115314,-0.33471500421614486,-0.5072025953784678,-0.04121592353636624,-0.5584035760273511,-1.0,0.0712470499879101,0.06543083649843941,-0.559328193087658,-0.7055419583368517,0.05996436900999937,84.63920230910522,0
0.0070430092698152875,-0.09920219074107825,0.12469409689530793,-0.23054292379016586,-0.4073477662229323,-0.6915301822079029,0.17757186824766572,0.3570259648807436,-0.5763156418588465,-0.578100993745608,-0.18438385175299846,-0.10508546408949043,-0.09312667472087399,-0.9799034786011737,-0.9913959928821482,0.6379086853594321,-0.25294269847782663,0.32090251530900354,0.1640831846076307,-1.0654540846346159,0.8186764846010873,0.8446712488587006,-0.985517231573222,-0.26857708028966565,-1.0115343467380704,-1.0,0.0712470499879101,-0.5789176419314926,-1.0057600247142027,-1.0607542515136015,-0.04331640468758797,83.4998705669169,0
-0.039028722033805606,-0.23947502432326978,-0.023172772072741887,-0.3132825963597632,-0.3708297898019397,-0.5985414135568566,0.2352316772579963,0.2329000024262623,-0.4900078900039483,-0.48898109210567425,-0.2806486760301508,-0.107345311920134,-0.09330862310087183,-0.9849821251852678,-0.9913959928821482,0.1552147335347823,-0.3198919581207182,0.15389430881880412,0.026519930637640268,0.17770414760969086,0.814823148251732,0.2617209426509768,-0.9915232466036702,-0.27322356419295685,-1.0115343467380704,-1.0,0.0712470499879101,-0.48708519764058317,-1.0057600247142027,-1.7353320795264693,0.055194477449613505,88.50707176532215,0
-0.20259024969442335,0.21542839804035868,-0.2072228633123569,-0.31549186146907837,-0.1990162578156601,0.8129642954997096,0.8119207089577133,1.389134951056271,0.778498265176121,0.7974152104380773,-0.2580353273401128,-0.10670948936167023,-0.09310199669053183,-0.9746271551815864,-0.9913959928821482,1.7493571033799968,0.3808450018050006,0.4313158749447548,0.437658482771989,-1.2785506123210308,0.83148126523024,0.48477093177725933,-0.9799670701573038,-0.22673548071226052,-1.0115343467380704,-1.0,0.0712470499879101,0.8149107748451379,-1.0057600247142027,-1.4711629888756041,0.44455972686613443,85.09147127029117,0
-0.2087491089721923,-0.4038634981198941,-0.1020920836414313,-0.4376480566597506,-0.4519057781556698,-0.0502424756803292,0.3529514102272413,0.4912292308767904,-0.0537422852368183,-0.041679420722301144,-0.263598677166037,-0.10608950424492294,-0.09326924807923584,-0.9125212949400309,-0.9913959928821482,0.11976140070198524,-0.17671984814221697,0.26993997665468117,0.0016144687166181493,-1.2922193797984032,0.45383507732492945,1.054133817954623,-0.9173234715845698,-0.2540154714966419,-1.0115343467380704,-1.0,0.0712470499879101,-0.029409679448265943,-1.0057600247142027,-1.2847326152086196,0.03161555701176279,83.85619174434088,0
-0.17765227004252773,-0.443919948258834,-0.03161314970892392,-0.453193739197249,-0.5382517057523922,-1.2378624285874855,-0.3263532142548127,-0.37890378626584065,-1.101593862909676,-1.1251039628027664,-0.27726366242421907,-0.1056721866537227,-0.09298604574161125,-0.8267142912928732,-0.5864524001216215,-0.4233194496368397,-0.3948761295723891,0.08299172526990065,-0.10117555842265968,-0.6216505187781232,0.9195555594712598,0.7923570964894303,-0.8277020938172688,-0.26910460343854137,-0.5584035760273511,-1.0,0.0712470499879101,-1.1473600467818938,-0.559328193087658,-1.1826892329246435,-0.08469877434681172,80.47022744697163,0
-0.7331663839254884,0.19100721349756247,-0.9475187701617913,-0.7146414053045015,0.002727826537871514,-0.045122704897283275,0.6655951193832342,0.8719591496811123,0.08427585689304863,0.09874448880977743,-0.16011250238987815,-0.09372702327641232,-0.08978785482922659,-0.6082427394179093,-0.9913959928821482,2.1306682393594785,0.22722886160948466,0.4875878459078837,0.38060100909155636,-0.49551473986630223,0.7739980462605015,0.546070211547793,-0.6097322866414748,-0.12247543238385539,-1.0115343467380704,-1.0,0.0712470499879101,0.11316940520054228,-1.0057600247142027,-0.08092406446964849,-0.07602708548071316,82.364635103322,0
-0.9888742643830866,-0.43036798425817296,-0.9333446338782451,-1.0644057912695006,-0.44927080853417356,-0.09900300146885459,0.5620569489040748,0.9010317278498761,-0.001800923533749189,0.011227761246363184,-0.2723670665827161,-0.10543168267184645,-0.09333406572858177,-0.8255491280059957,-0.5864524001216215,1.4096862182189398,0.004687197889669612,0.46713457266590314,0.2180644129248689,-0.8272128410555356,0.6388678788428719,1.0324858435338575,-0.8290050888187376,-0.218430226434132,-0.5584035760273511,-1.0,0.0712470499879101,0.02437076549884594,-0.559328193087658,-1.130077443093051,0.06832918467260865,84.10951760104302,0
-0.8819651105189636,0.015824437263907986,-0.9327392059465358,-0.618888622395889,0.10876846297218762,-1.0605370798172582,0.04592212237418998,0.1381245335071293,-0.8803257975792653,-0.8937088625871502,-0.17685546296946217,-0.0727343464347978,0.04949991831652169,0.05643409504622375,-0.1815088073610948,-0.11512492492684262,-0.15019079539561414,0.08489062499366334,0.02801238863163409,-1.1271696948689063,-0.29731655196691065,0.5253823982703179,0.06728920665602504,-0.10052940162095424,-0.10527280531663176,-1.0,0.0712470499879101,-0.9058829380544213,-0.11289636146111386,0.5237786889306658,-0.1274411416370356,82.19263899765075,0
-0.670841495053501,-0.07586736929296606,-0.7040655147991736,-0.686325092744864,-0.19269908705643196,-0.27586394269082615,0.5428681193537902,0.44432435759723093,-0.1371573281814279,-0.12679905584262444,-0.21111795771706637,-0.07986317715228236,-0.0036395125778996024,0.0861661074414584,-0.9913959928821482,2.5619694502132626,-0.08697436291515948,0.6837163191990014,0.40673773597876084,-0.5286024538709468,0.6669610770506447,0.13670914107243945,0.09548345079741091,-0.06407456202561837,-1.0115343467380704,-1.0,0.0712470499879101,-0.11609032084651637,-1.0057600247142027,0.37132019717486436,-0.12127550044040983,83.17689530685921,0
-0.8685136272522472,-0.38402551801307516,-0.7631481582524479,-0.9847375360470001,-0.5108209963593803,-1.1663239452322898,0.36217882750954383,0.36540862757387854,-0.8443270905395426,-0.8561978960059358,-0.28097530816643396,-0.1056290185437076,-0.09296914396473885,-0.8043393450392016,-0.9913959928821482,0.3885092562519632,-0.22362087683465354,0.8177790340420419,0.43775641969219004,-0.39726300589234137,0.5960629045815901,0.4756437407430832,-0.808142104362629,-0.24468518461703911,-1.0115343467380704,-1.0,0.0712470499879101,-0.8668781538296155,-1.0057600247142027,-1.1729458491339315,-0.013813625184420558,78.9873417721519,0
-1.0549964934198854,-0.032556331266225834,-0.9924272773315194,-1.0510693738413175,-0.3765051089867008,-0.7525578265496721,0.2926823609823626,0.08892102343621944,-0.5784756131344099,-0.5803340454597001,-0.24314663303518538,-0.10189018536334168,-0.09175618434164438,-0.6896563114443447,-0.9913959928821482,0.46060728590212136,-0.007935326103361236,0.27619722455763385,0.42415241115385444,0.865061027166539,0.4803285296405616,-0.22173245930293212,-0.6912893669579577,-0.19085400648894923,-1.0115343467380704,-1.0,0.0712470499879101,-0.5812214423835887,-1.0057600247142027,-0.6243175284258898,-0.04275272981028081,78.26495949830154,0
-0.7434007348683827,-0.553284057988264,-0.6150319954301648,-0.8846470496920492,-0.5258200542048204,0.12233243213540744,0.7801473470142765,0.9905109846093487,0.2606001979243879,0.2773982062298166,-0.24631755755230145,-0.10306252572836118,-0.09251899750606103,-0.750887386486549,0.2234347853994319,1.724661972895003,0.283891874968585,0.8945570874228428,0.6444321702638496,-0.7223070305432147,0.6124321856560413,0.8189672708592869,-0.7524727930493489,-0.15803392022134638,0.3478579653940876,-1.0,0.0712470499879101,0.29381428272285415,0.33353547016543034,-0.7545479577480075,0.044259090979661124,78.55232100708103,0
-1.1208021161265458,0.0813460466224376,-0.9994787320655448,-0.9009740576950372,-0.1816187019814222,-0.6436991411447527,-0.07047436240552837,0.06426030875571635,-0.6191990633782876,-0.6224601181141022,-0.2260459974128745,-0.1004870746129499,-0.09256864381214563,-0.677394650682664,-0.9913959928821482,0.005092982072395839,-0.3285601033825813,0.13094556820004066,0.005955910233443536,-0.644727074789841,-0.08211670764924088,0.8201003592562105,-0.6815089889247069,-0.24845851483502998,-1.0115343467380704,-1.0,0.0712470499879101,-0.6247077139057728,-1.0057600247142027,-0.4951465066170444,-0.10978064917567441,82.47507031449757,0
-1.0481033638817496,-0.06984174152656958,-1.0384041867336755,-0.9170047008662877,-0.16479543439802322,-0.9250734416017797,0.2827071860986799,0.3076437791712888,-0.7043824512865983,-0.7107302026199633,-0.15175158179504783,-0.10338860731214199,-0.09224126688694724,-0.9476277017605419,-0.1815088073610948,0.20176461751499475,0.03294484534525838,0.4667853050437115,0.16835939070246217,-0.43688905183918086,0.5472244919597898,0.7655800416736886,-0.9519420924909011,-0.2431220670284703,-0.10527280531663176,-1.0,0.0712470499879101,-0.7159856012923036,-0.11289636146111386,-0.7956105043335745,-0.00519038956884745,78.51114023591087,0
-1.076285766091419,-0.44919410549512506,-0.9672485980539636,-0.7285705523961595,0.003977748024991519,-0.9612107448489847,0.060531422765346246,-0.06050069628411559,-0.805680661274191,-0.8159697876203963,-0.2218186926141568,0.0499593454971529,-0.05465562944769558,3.488845309595088,-0.9913959928821482,-0.1585188133474192,-0.2543420343904187,0.45870611299974157,0.1168436479451373,-1.6783194648970947,-1.4895323833457206,0.2881505236690319,3.139314711664887,0.2358116866879384,-1.0115343467380704,-1.0,0.0712470499879101,-0.825091359244394,-1.0057600247142027,1.5482290338972455,-0.1387397946905935,79.73063973063974,0
-1.4974175818647097,-0.2904293030634904,-1.3282617123914204,-1.3302181030805222,-0.4079558361355853,-0.8831140223498102,-0.15067098497334858,-0.2809090887466985,-0.8104396217261463,-0.8209211849706134,-0.3007527616280904,-0.10283588337166856,-0.09238692257073866,-0.26144864246758137,-0.9913959928821482,-0.0799117253641615,-0.30831825093662507,-0.20140425936630477,-0.20434351005576515,-0.6735626475254026,0.10797153480816608,-0.7408985048581039,-0.27020555521898726,-0.206975076311622,-1.0115343467380704,-1.0,0.0712470499879101,-0.8302321870079629,-1.0057600247142027,-0.7273813839270196,-0.09286940628990636,80.0625488663018,0
-1.0789894350494347,-0.04500379661433661,-1.3001271202708138,-0.8700174039071937,0.14238121647717153,-0.4750663857690843,0.7725710885114874,0.6341047184476529,-0.1718995474487973,-0.16230731112606936,-0.18855792388173018,-0.10145199180868975,-0.09281596420386526,-0.8240002008354905,-0.9913959928821482,1.3775091222398885,0.3775998244049954,0.36036781766791454,0.2549070086624872,-0.2644814501289672,-0.0609705615884963,-0.2691963163264848,-0.8272033396978852,-0.1706161744541082,-1.0115343467380704,-1.0,0.0712470499879101,-0.15230682775779322,-1.0057600247142027,-0.5813233477242379,0.019800340160671275,83.4998705669169,0
-1.0949578504044395,-0.010808358481261519,-1.247205596357875,-0.9447282837624504,-0.0014948811888852599,-0.3821932554410708,0.46201937074527005,0.5310840002834842,-0.24782876155985198,-0.24002608824130087,-0.058325926992998184,-0.07175786104712965,-0.025561434397536987,-0.34380687102225105,-0.9913959928821482,1.4072198233889992,-0.0031548669477051683,0.3722207466668669,0.1750011068745255,-0.41446225309322093,0.3985205093715926,0.3915842739869852,-0.3482105063037421,-0.11504607193104502,-1.0115343467380704,-1.0,0.0712470499879101,-0.23169344065323913,-1.0057600247142027,0.5422669538102606,-0.1226688194119241,78.20365535248042,0
-1.4785326049150105,0.7932699407810695,-1.7680516846665764,-1.0826456995500664,0.3196335960155139,-0.18886578512559563,0.9273106563712727,0.9014851730987488,0.11320080366386058,0.12810854106360253,-0.02095526153592409,-0.0934603903194762,-0.09051870413849511,-0.8227967540394823,-0.9913959928821482,0.2595886010222503,0.12035324832528793,1.4177280759389694,1.1647390184241344,-0.46194486216757963,0.5583864632800452,0.11519562987252512,-0.8305736647028515,-0.2030426508416506,-1.0115343467380704,-1.0,0.0712470499879101,0.1429182948670425,-1.0057600247142027,-0.06874647683876946,-0.0861974448397464,75.70428015564202,0
-1.7988364421235483,0.5908521192702089,-1.8998212933327094,-1.2483405827487064,0.2368685245710811,-0.8423833579988127,-0.3529794614778347,-0.427050595315503,-0.828073417311346,-0.8392737429453764,-0.15043302078537446,-0.1031335400363616,-0.09289878373773479,-0.9401922063220945,-0.9913959928821482,-0.27171135157815474,-0.42225258337940197,-0.0013883761949342439,-0.0871345127001799,0.4982450787515032,0.47226148632612275,-0.07623269559530683,-0.9450213340687356,-0.27749744580633545,-1.0115343467380704,-1.0,0.0712470499879101,-0.8492927939720001,-1.0057600247142027,-0.7632848786254917,-0.11664401842533235,70.47718930256949,0
-2.3928499271685517,0.4716629505503123,-2.246482204347882,-1.2534326694031037,0.5593144865862284,-0.11368550279718638,-0.5486665414394595,-0.4696521193930113,-0.3429358721148556,-0.33759937167856024,-0.20560754626164818,-0.10400826455070883,-0.09325027435410943,-0.9056475883676255,-0.5864524001216215,-0.37056264484203416,-0.4946097019941825,-0.5764678696276926,-0.5748395372286919,3.156661545226714,-2.970327603681318,-1.3432133800991615,-0.9096771618312256,-0.28276473155506765,-0.5584035760273511,-1.0,0.0712470499879101,-0.3315901463900271,-0.559328193087658,-0.8810900491512981,-0.13196170723821668,73.38842975206612,0
-1.5380049935629938,1.545286935635211,-2.258163402089096,-1.1758659102601956,0.6676522760239001,0.09422667465737407,1.2934343716336145,1.7711739981154013,0.5320044398912102,0.5507814665731945,0.35949585161129477,-0.06195331106235095,-0.08820449394893579,-0.7032844267892746,-0.9913959928821482,5.739212460511452,0.4603459407928512,1.011673019028342,1.1272947255392318,-0.8691213241905255,-0.2785981134975285,0.2036253862869948,-0.7087362584968222,-0.11081092672534862,-1.0115343467380704,-1.0,0.0712470499879101,0.5686335196531788,-1.0057600247142027,0.7047285133998249,-0.11372503258868831,74.99604117181315,0
-1.6234782133828263,-0.21937064872173603,-1.7207926925855066,-1.4597295345497683,-0.19800280796123848,-0.8611255367836171,0.22500277726073187,0.13919944910940202,-0.6800552694955123,-0.6855003585022716,-0.2421601372965302,-0.08960414985393009,-0.09239021611893498,0.006518811026541989,-0.9913959928821482,0.0005699454639998495,-0.139669413296665,0.5491415552078108,0.22053904865447121,-0.7184277369319342,0.5683247370349669,1.0041845323518306,-0.025756085599011373,-0.1033626029246865,-1.0115343467380704,-1.0,0.0712470499879101,-0.6898742223626089,-1.0057600247142027,0.0868898828324797,-0.11479543444180171,79.58549222797927,0
-1.4163002201220765,0.03581247758841824,-1.4151228138878256,-1.2460504908670993,-0.22002845146400182,-1.371028550968098,-0.16104643399912422,-0.34367184596366807,-1.1567282404275134,-1.1829863940548888,-0.1971696471972056,-0.10296909923644937,-0.09017294953437015,-0.8730970301711561,-0.9913959928821482,-0.2860014350659764,-0.37505821257299526,-0.04730204427923073,-0.1396293276353768,-0.5575954800706713,0.9686580743602069,-0.3990676749293245,-0.8777462954205755,-0.2695268026240649,-1.0115343467380704,-1.0,0.0712470499879101,-1.2079991308382745,-1.0057600247142027,-0.7432195477361442,-0.10674172488421486,77.47542679772374,0
-1.5777155883219556,-0.1672491237500625,-1.6496014904980472,-1.4703178417200227,-0.2788085430204561,-0.6597235201032992,-0.10581434577015947,-0.4062001023046828,-0.6402295765214503,-0.6442334421041803,-0.2629883444710199,-0.10457871848834645,-0.09328375990344931,-0.7927464386094021,-0.9913959928821482,-0.12042545356015776,-0.25110785343205316,-0.22712032613948885,-0.2112130115294833,-0.2546221668019047,0.4858770047774506,-0.6036219568920915,-0.7954843798758191,-0.24708345668247772,-1.0115343467380704,-1.0,0.0712470499879101,-0.6472031079932069,-1.0057600247142027,-0.9703971264018918,-0.05472306523754739,75.94067135050742,0
-1.8161819923724083,0.4550884862040302,-1.9293091949477252,-1.2344383779144792,0.28227107804916995,0.687138482646156,1.3671935546202856,0.9473544974146854,1.0098115253840052,1.027452170088141,-0.133179019974015,-0.103004973203073,-0.09230821297292875,-0.9518177963960326,-0.9913959928821482,1.3888619892976146,0.6292935787330995,0.13441930814979516,0.3372397259649823,1.0542949519589129,0.38756257196576677,-0.831577877561195,-0.9580134683382933,-0.19966606663511502,-1.0115343467380704,-1.0,0.0712470499879101,1.0432208633507298,-1.0057600247142027,-0.7475474798813196,0.12044804492463267,77.81761496492595,0
-1.6695771989055734,0.9308411305091556,-1.9570520395831084,-0.8782078501661184,0.7552481251077426,-0.03730067153025614,0.6220971884177481,0.2367175540052386,0.06967614411323261,0.08391460374171286,-0.058068767157923716,-0.1002551755012208,-0.09218826973246136,-0.9358684759045507,-0.5864524001216215,0.07395233780870748,0.3775727563591289,0.5896014430870962,0.6030837584613141,1.540730436989197,-0.9356870672272659,-0.8858270360071901,-0.9401431041700177,-0.21245413419679068,-0.5584035760273511,-1.0,0.0712470499879101,0.0981365286055995,-0.559328193087658,-0.47594565546539785,-0.0029621717599447794,80.62992125984252,0
-1.3756750378756488,-0.39501034231344306,-1.3013023627264846,-1.300069717015599,-0.39572687455889766,-0.6477939103119045,0.39402841265203653,0.3702032805144852,-0.46493471614979087,-0.463130336950865,-0.25503654830829786,-0.10210888948792812,-0.08979581167421781,-0.6486281877577414,-0.9913959928821482,1.0842769577875526,-0.1430567251092159,0.506682068620484,0.3193531448258756,-0.9363236020419815,0.040073041841950034,0.6710254856167177,-0.6505773483904845,-0.20903725837783602,-1.0115343467380704,-1.0,0.0712470499879101,-0.4604880615437485,-1.0057600247142027,-0.6468212487014096,-0.06588909792470565,81.40641158221302,0
-2.0251073979507144,-0.10684663736486825,-1.9721521244680922,-1.772178893973285,-0.35133777093523044,-0.12346374912172062,-0.11313515985122555,-0.3027523132336361,-0.25896482392073594,-0.2514379719082912,-0.3299904217969517,-0.10800066463244413,-0.09326480190847289,-0.753291757833109,1.0333219709204853,-0.28871290372531533,-0.20694268357051004,-0.5498551201253639,-0.39658690659373247,2.36162349696635,0.5133063601851233,-1.3041280480768405,-0.7533744686394476,-0.23566408975235226,1.2541195068155262,-1.0,0.0712470499879101,-0.24336385024020232,1.2263991334185183,-2.187440530444939,0.44215204311722045,78.67612293144208,0
-2.1834542039852747,0.00693053679276563,-2.227607098241652,-1.6634130007256573,0.027354658000317018,-0.14048433885719994,0.46525286765297613,0.45465279488256816,-0.07330780363361254,-0.06162774160556716,-0.15215430338966437,-0.10557062848215655,-0.09294432156634293,-1.0221957515059235,-0.5864524001216215,0.3949610692984277,-0.07757570448715795,0.21389990624112612,0.182876713074419,0.4610608087192641,0.25755099182347246,0.0854578083444021,-1.028928504474265,-0.26541056343516106,-0.5584035760273511,-1.0,0.0712470499879101,-0.0497065414508681,-0.559328193087658,-1.1599818140569897,0.04380650398739704,77.3953488372093,0
-1.6566334256363047,0.26820477169988466,-1.6919458323099477,-1.025716709599054,0.3188228361319766,-0.15279542957476638,1.0344297189937601,1.0898670963149997,0.19838765534272093,0.21445846283581574,0.28636200418656754,-0.06619116133805492,-0.08696039846174364,-0.6971725403808426,-0.9913959928821482,1.4007497941534481,0.5127990700564814,0.9042108169209501,0.6799080641521859,-0.6962181033469811,-0.10906186711442574,0.3146889450741234,-0.7012592150614971,-0.09889033636825224,-1.0115343467380704,-1.0,0.0712470499879101,0.23026854598236993,-1.0057600247142027,0.6391388465532815,-0.10942031885788954,78.42890809112333,0
-1.8640229969926057,0.5328681017951388,-1.9434477178235237,-1.0529553318614646,0.5232356717688185,-0.9261733835100552,0.1368392086530336,0.10984728174461637,-0.7563577098887463,-0.7646908658570593,0.22764207184391086,-0.09269724598244555,-0.0918849125729166,-0.9465905811928224,-0.1815088073610948,-0.19867797910288967,-0.26754600986171007,0.9146281443255327,0.654152677562985,-1.1155395396864916,0.10642172554299659,0.03901017034763649,-0.9512700722663466,-0.2659165741688551,-0.10527280531663176,-1.0,0.0712470499879101,-0.7718904516077784,-0.11289636146111386,-0.03503468311977348,-0.12003654791827814,74.05785770132917,0
-1.840641920235577,0.5187798584481322,-2.146550982208107,-1.4325986813170803,0.23987509247253191,0.7854900037501209,1.0175779248463221,1.3556929072850128,0.8686809151209969,0.8872609723205493,0.04442186505590196,-0.08071128296761672,-0.08646086442895283,-0.6681921561014795,-0.9913959928821482,2.9641209993647064,0.4090478957794068,0.8673950986024316,0.5122094918076466,-1.1980347202593111,1.0322405856195376,1.0807982982611843,-0.6714703971748723,-0.10632027031182374,-1.0115343467380704,-1.0,0.0712470499879101,0.9042413246615458,-1.0057600247142027,0.3507192975216147,-0.09784116008685545,76.15866388308977,0
-1.8540362929929066,0.3871928860321133,-2.102604037047564,-1.1931897817881185,0.49837236867367457,-0.3757268211451354,0.5061344226156911,0.4862031743912017,-0.2245435540285789,-0.21617520343992166,0.07145284286937646,0.055757415248805405,0.12604990411260705,0.8940928170557748,1.0333219709204853,1.7142522841125891,-0.2632108876730801,0.5118962502942422,0.3712108934676804,0.8115748492198701,0.1657135948738196,-0.0978418362099699,0.938680623218866,-0.06453410791506609,1.2541195068155262,-1.0,0.0712470499879101,-0.20731351496995307,1.2263991334185183,1.5730051681644124,-0.1388875224121033,77.45539177657099,0
-1.588270876377744,-0.3703520888013509,-1.5167278661917383,-1.451242723459106,-0.3809305066843419,-0.7283669868472847,0.21649012206153176,0.28959719497674374,-0.5889460909612836,-0.5911606566845717,-0.16596116566508862,-0.09704824994375556,-0.09264325796384155,-0.7058350912635188,-0.9913959928821482,0.0764574395644562,-0.14832420302610888,0.5981566367589239,0.22679869161681082,-0.5242191302706621,0.5427676605144425,1.300567062656285,-0.7055056138156434,-0.2190532690919952,-1.0115343467380704,-1.0,0.0712470499879101,-0.5923929993462663,-1.0057600247142027,-0.2539322909613003,-0.09905026417147526,82.62398320650748,0
-1.8455633911457707,0.9666269165126367,-2.0348317221038745,-1.2088432333553396,0.41445872072756396,-0.04775364808505319,0.9840253731748821,1.2406672330590924,0.2456027521852086,0.26223485887182474,-0.024429841716024688,-0.08322156582601854,-0.0884266473821092,-0.6206926245987178,-0.9913959928821482,1.9603798753524115,0.44133906852246063,1.1929442123985043,1.3081904483751081,-0.3719993389521147,-0.5326031026180617,-0.048637702817748395,-0.6191337590791038,-0.0811164417917191,-1.0115343467380704,-1.0,0.0712470499879101,0.27851441233608426,-1.0057600247142027,0.2858717593460501,-0.09196132709074323,77.11637487126673,0
-2.0667080147321313,-0.22607637529160435,-2.0634292885252,-1.7611056261692783,-0.25087110870023327,-1.1091012060894019,-0.4032647787113847,-0.4493478901038272,-1.0263736606061709,-1.0462797136753363,-0.2361587310936253,-0.10367934726525263,-0.09293936123959583,-0.8226602688751918,-0.9913959928821482,-0.3370356316184735,-0.4589502264470539,-0.13664493348111548,-0.16516785375239101,0.959478647419404,-0.7498335023459328,0.05369494635352173,-0.8266171205811208,-0.27707471291839353,-1.0115343467380704,-1.0,0.0712470499879101,-1.0649332349583354,-1.0057600247142027,-0.834403210810883,-0.12341082874211994,72.3580214603507,0
-1.6025736420725694,0.3910432214806218,-2.046156785767612,-1.314160517651841,0.2931487731532954,-0.5984058051707706,0.6883669418058778,0.8405864545796673,-0.30086301294763507,-0.2944046263981321,-0.1457070636636757,-0.08191731529271132,-0.08116303914423878,-0.29616193193198004,-0.9913959928821482,0.27640877966391864,0.1411896727748397,1.702922331175187,1.6223067004161706,-0.8292788977133582,0.7225190963523159,-0.2996533440555664,-0.3245947006684697,-0.05486956244248473,-1.0115343467380704,-1.0,0.0712470499879101,-0.2873352529486131,-1.0057600247142027,0.3203232242577734,-0.10878826975165991,76.37791154148128,0
-1.3134072595130473,-0.7952242644467098,-1.0846660033978124,-1.3932629854682974,-0.7180714915886027,-1.8379166179947921,-0.6715988228087176,-1.0611806365267074,-1.5776515640787154,-1.6279028359448453,-0.3318521092586759,-0.10734935586611367,-0.09324233517002552,-0.3124900620632206,0.2234347853994319,-0.5098491099750355,-0.5107627355981931,-0.6387482091190757,-0.567066424062128,0.4750148035486494,-0.40956082970450597,-1.7332985214732577,-0.2996237035632296,-0.2801531386746946,0.3478579653940876,-1.0,0.0712470499879101,-1.6772817796461899,0.33353547016543034,-1.7373820066493448,-0.12516950220274622,70.01823391508205,0
-1.68427077047458,-0.015880903965271923,-1.8086153560910967,-1.5168201780453647,-0.18628057131176168,-1.1938266189552116,0.396084291707268,0.2875452850060435,-0.8502681377733153,-0.8623859278024885,-0.19044912094463798,-0.09905323963349776,-0.09155168350853657,-0.7217642488244979,-0.9913959928821482,0.5371716553801877,0.03603459106172044,0.7122618691307474,0.5038265137374076,-0.9163404623455143,0.6288545358897727,0.21285466095773992,-0.7234357436272093,-0.19029253260039436,-1.0115343467380704,-1.0,0.0712470499879101,-0.8733099264136079,-1.0057600247142027,-0.3841776782871728,-0.06573585358246793,74.91695228051674,0
-1.4946291340076894,-0.019319236367693816,-1.7112126859014012,-1.1340784689852215,0.20122887135725392,-0.5930311041340061,0.8169421004895251,0.8843170323847338,-0.23357048045162024,-0.2254196502928103,-0.006535163740511993,-0.08326804715241454,-0.08588505065301652,-0.6477917891391474,-0.9913959928821482,0.7431877751980887,0.24666710225773042,1.2488997318330106,0.7943626485625742,-0.39734264006693953,0.025924015925772658,0.7090946615128885,-0.6490610818058425,-0.13091907247190143,-1.0115343467380704,-1.0,0.0712470499879101,-0.2167612045510499,-1.0057600247142027,0.2846116638991783,-0.10173577176387393,83.62976406533575,0
-1.3319170520190848,-0.4892088136086379,-1.1779731316965336,-1.2226107269024136,-0.4155904917055615,0.11125708001493136,0.02757871028669073,0.23103441029847474,-0.049910033570371645,-0.03777340924305271,-0.2425185763171439,-0.10495482469579342,-0.09258501161137607,-0.8848962657851316,-0.9913959928821482,0.13328941655091858,-0.28424171393036146,0.3913630458087341,0.03646476601904918,-0.7720045510556852,-0.0719201598596923,0.8708666021245612,-0.8901997415219634,-0.26099385047891743,-1.0115343467380704,-1.0,0.0712470499879101,-0.025436658633939787,-1.0057600247142027,-1.0363050036959163,-0.05746096574354083,81.53288451579492,0
-1.1499854153527647,0.2318341746475897,-1.1671110423335145,-0.8969866035952976,-0.017608733874189108,-0.4673195274332885,0.9998528681948714,0.722591562123724,-0.04620636187196077,-0.03399883163130261,0.019113391962768202,-0.0790068619461516,-0.0862371002648761,-0.6088425944960391,-0.9913959928821482,2.089522939298977,0.48456028986829563,0.6498401397102339,3.0045553577764923,1.9078115935505064,0.6630906206057239,-1.0572604216199901,-0.6179567608694575,-0.06702855004627176,-1.0115343467380704,-1.0,0.0712470499879101,-0.02159771128403397,-1.0057600247142027,0.39151492295556006,-0.09703810678622199,75.31354838709677,0
-1.4647175069672935,1.5712938194469628,-1.916381527935345,-0.6824184654174164,0.9621608037188245,-0.704040019016592,0.32318788626789013,0.151458963010826,-0.5325391481696395,-0.5328718398566941,0.1261817860736493,-0.09353182995414248,-0.09168967384323165,-0.9187829014382625,0.6283783781599586,-0.25672274842163234,-0.12876693752701174,1.0166580853777964,0.5892906714793393,-1.1889530908425148,0.03389609368529824,0.41466902720806836,-0.9224828974074656,-0.2506963174215165,0.8009887361048069,-1.0,0.0712470499879101,-0.5322848048445215,0.7799673017919746,-0.07198823850192246,-0.10709881764028505,79.25906324424452,0
-1.9043087124984677,0.7367882005111169,-2.1303112682751992,-0.8284185584342343,0.9820244208654885,-0.1749647436028533,0.40828313913413833,0.3661696818709522,-0.12145421427447832,-0.11076054243179753,0.6345544357617052,-0.024933446719437643,-0.08943291414939386,-0.5866984812672771,-0.9913959928821482,1.0952306608453912,-0.28010778169781175,0.3554891284453754,0.43279837287969525,-1.4126113285383322,-0.3824478242649391,-0.18890835215507368,-0.6042040663542904,-0.2300823691560832,-1.0115343467380704,-1.0,0.0712470499879101,-0.0997429294152657,-1.0057600247142027,1.1073323433420443,-0.13715292009783475,71.07455012853471,0
-1.8874386569857302,-0.19299999837648976,-1.8566934565503617,-1.5582034854588787,-0.19256396040917576,-0.11688440572229468,0.756257264530142,0.800250423873917,0.07643996699422784,0.09078577457507575,-0.17707179773703252,-0.10046258987373351,-0.0924891843731676,-0.8069915937659734,-0.9913959928821482,1.6775251913060087,-0.056809580833308254,0.26329048687645035,0.47619045417701455,-0.21092458381698503,-0.1537582019529465,0.05458619226865099,-0.8112520458476283,-0.22261025543356464,-1.0115343467380704,-1.0,0.0712470499879101,0.10510247302373539,-1.0057600247142027,-0.4930938100482279,-0.06739348882170323,80.22982501958737,0
-0.961031671054825,0.7871335383210434,-1.6075064425403798,-0.9171124698960105,0.3749003947433065,-0.6902392741164828,0.050692027615793556,-0.3977460378900427,-0.6167431899931632,-0.6199183226844893,-0.13919137727230224,-0.02003007300480712,-0.07018177627121337,1.119894414201691,-0.9913959928821482,0.23485768548853625,-0.25321541825950555,-0.47236444387916154,-0.24734506763461667,0.41466725452902325,-1.4205032176647852,-1.2634482094034634,1.0871205187355477,-0.030570814627295762,-1.0115343467380704,-1.0,0.0712470499879101,-0.6220824709754195,-1.0057600247142027,1.1465990393831553,-0.13697241368850968,79.77148792521423,0
-1.691335645711369,0.34007644282722843,-1.7192969294601073,-1.2134503593759847,0.10937653288484059,-0.06660943365293961,0.7796074878624563,1.0591497202036462,0.12419835524634659,0.13926715553151287,-0.20081689720211665,-0.09983448320058694,-0.09260931785176256,-0.7268073761043705,-0.9913959928821482,0.8147416292816259,0.6624910432491389,0.1088729085995272,0.21203821563156477,0.03664771850433341,-0.07702581610632302,0.11636238573322617,-0.728551222672327,-0.08656099636433141,-1.0115343467380704,-1.0,0.0712470499879101,0.1542171992654138,-1.0057600247142027,-0.4424204058836252,0.031882191311756146,76.71924290220821,0
-1.6319872380998441,0.18347270973219793,-1.6473934592176958,-1.11680848197216,0.16234617860927755,-0.5195422908414302,0.40092850102726,0.4841806387295721,-0.3708670170648292,-0.366302492078019,0.18056924328752796,-0.09012783773961082,-0.09045020088467752,-0.8986413909951566,0.2234347853994319,-0.21511410895373592,0.14532585067361758,0.07829349860957321,0.1420129695478598,1.5971994137086412,-0.13354095950484365,-0.1460152904452414,-0.9013304074154154,-0.2209367289145458,0.3478579653940876,-1.0,0.0712470499879101,-0.36102555807861997,0.33353547016543034,0.06770301834554446,-0.09428631194765598,77.19587628865979,0
-1.9356679464423303,-0.6223601321632886,-1.6623867038794367,-1.7321157571738741,-0.5949373342763752,-0.7689105491236902,-0.90612555003639,-0.8696555598220065,-0.8481611842111371,-0.8601912656643441,-0.3116516512837317,-0.10568875750514313,-0.09354542667220399,-0.5058846098123039,-0.9913959928821482,-0.5258177059459096,-0.518063664945363,-0.6203844618195484,-0.6881448390459572,-1.364296570877785,-0.6459719382502156,0.4764269522143778,-0.5130326981520201,-0.2833864200070975,-1.0115343467380704,-1.0,0.0712470499879101,-0.8710286971064741,-1.0057600247142027,-1.1864662379967035,-0.13696618959202164,76.33795448600576,0
-1.8961683985602453,-0.8344062690068151,-1.61448667045891,-1.8641597608416032,-0.8059375939669576,-0.7602508537624296,-0.9397327682367991,-0.895117555685523,-0.843812210057137,-0.8556616588067028,-0.31578490571511897,-0.10607232359173734,-0.09353557702320182,-0.4998687928032441,-0.5864524001216215,-0.524733299347358,-0.5211836515806462,-0.6436144461970539,-0.7033981313604556,-1.0412281318742787,0.2689328445773807,1.02182725383187,-0.5003350026181517,-0.2841777451028281,-0.5584035760273511,-1.0,0.0712470499879101,-0.8663208447244115,-0.559328193087658,-1.2802199703326091,-0.1379107671276303,78.1832419733751,0
-1.9377250142287226,-0.7020882787384379,-1.6596088580751236,-1.8409624771937936,-0.7340502176266503,-0.7551502252674757,-0.9851237688500817,-0.9411822679080479,-0.8421455357688775,-0.853925905264464,-0.294545063488451,-0.10683047133722917,-0.09355399019155712,-0.8730372607846764,-0.5864524001216215,-0.5270233827404353,-0.5253688935828928,-0.7155944571772391,-0.7520113425754211,-0.18370465592413943,0.13740007430540307,0.603561286400104,-0.875956112860859,-0.2856130477173781,-0.5584035760273511,-1.0,0.0712470499879101,-0.8645169378906599,-0.559328193087658,-1.5142452931781616,-0.1395526828354366,76.71924290220821,0
-1.8543987551994945,-0.7855131203184706,-1.5602830638670575,-1.858986847414914,-0.8508672041796498,-0.7834967924726617,-0.9202823400177482,-0.9006107017459011,-0.8592980874874145,-0.8717932361749104,-0.3301575465839993,-0.10587082431592995,-0.09344619986690976,0.24843016477450963,-0.9913959928821482,-0.5258830642544433,-0.5184063781854854,-0.6619911875999491,-0.6499172361326565,-0.9375006329405475,0.5263555075329145,-0.2824276632179428,0.22780878169842245,-0.2806138845181264,-1.0115343467380704,-1.0,0.0712470499879101,-0.8830898138367719,-1.0057600247142027,-1.2293855437598822,-0.1368657582274748,81.17556071152359,0
-1.9161552130784005,-0.11712324213845812,-1.7941563125455697,-1.552168419794408,-0.24431746630830678,-0.8093919890598941,-0.9835962149248152,-0.9518066770026847,-0.8805537857598981,-0.8939465482070471,-0.23612222746553077,-0.10552771129265556,-0.09354977531452155,-0.9340875662773889,-0.9913959928821482,-0.5270033240997868,-0.523664688672804,-0.7527430899527865,-0.7787912338440113,-0.4392407312957687,0.1738692373727308,0.4727634077340318,-0.9382917081386832,-0.285529563826602,-1.0115343467380704,-1.0,0.0712470499879101,-0.9061302136546945,-1.0057600247142027,-1.1506060110738203,-0.1394377684288698,79.91675338189386,0
-1.9319389714198452,-0.4954953404593822,-1.813708073399004,-1.8475094457494472,-0.5960859107780531,-0.8147915016672954,-0.9562634621592864,-0.956346612411034,-0.8832589104720354,-0.896766850303751,-0.2814644962381019,-0.1079912249761861,-0.0935051891774136,-1.0530630524646727,0.6283783781599586,-0.5273413832861812,-0.5259175929550634,-0.7391485364958202,-0.7480684568437117,-0.41224647061971686,1.0052139387942023,-0.6850513692809059,-1.06058851848085,-0.28579598313242816,0.8009887361048069,-1.0,0.0712470499879101,-0.9090644271820587,0.7799673017919746,-2.1783037452890612,-0.13826515174686094,78.30588235294118,0
-1.9560059145118958,-0.2629890798024236,-1.7266332914561136,-1.5654509527077298,-0.32502185638208225,-0.7572968955514062,-0.9002890561667255,-0.8755902028795295,-0.8395805035569498,-0.8512547165200994,-0.1902989197439184,-0.091617718848923,-0.09300145278417848,-0.4280696540634724,-0.9913959928821482,-0.5260620292611575,-0.5178744673768367,-0.6835422153103574,-0.7338946669507561,-0.8361816513644089,-1.1720539659648133,0.506067779692892,-0.4382105675658045,-0.283025206710322,-1.0115343467380704,-1.0,0.0712470499879101,-0.8617410296854345,-1.0057600247142027,0.010005789479358672,-0.14023861144867258,81.38537089687257,0
-1.7331270420266653,0.047365413248343605,-1.7951534879625026,-1.381273680911648,-0.029094498890967532,0.04358696909942236,0.8812906440542638,1.02636469761366,0.25580441739127135,0.27255002352229313,-0.15208492029492135,-0.08650468342279974,-0.0879211957156618,-0.40511256550818864,-0.9913959928821482,0.8505179293626685,0.7600617857962428,0.27234901742239503,0.3375997373848174,-0.48715086954461884,0.24110342320490866,-0.25471292241471266,-0.41103462068841173,0.10091513503522215,-1.0115343467380704,-1.0,0.0712470499879101,0.28892310266391696,-1.0057600247142027,0.1906765375245995,-0.06621308001545698,80.96995255666842,0
-1.804662398362681,-0.0007775640334100699,-1.790559358363062,-1.6742707304702187,-0.4008279054928198,-0.5232507214522325,0.9503818198215433,0.45711358836772925,-0.1134057930208304,-0.10254282862383195,-0.1708671025836983,-0.0966952047349896,-0.09087715684910666,-0.6819394812468028,-0.9913959928821482,0.5821388653328678,0.8731131805214885,0.29037150619433394,0.8554502651652774,0.32307110158302343,0.12139228072398081,-1.1903640515481697,-0.6821068500597414,-0.025325689544413867,-1.0115343467380704,-1.0,0.0712470499879101,-0.09136961074864064,-1.0057600247142027,-0.2333420105545068,0.009318117198060848,79.77148792521423,0
-1.7087878358582549,3.2737623113969967,-4.137589769153377,0.5473608750056608,4.611087004563888,-0.5952831338445649,0.514252392218606,0.7205485269535694,-0.37766321518847684,-0.3732898149595628,4.837545995598109,0.9808154033634332,1.90214025403154,0.06732195430933885,-0.9913959928821482,2.29964857923905,-0.11957261067606542,0.5280933822624908,0.8112094370765359,-1.9166487484106713,-2.5352959448237717,0.40193835208609674,0.07474901229392174,-0.08365894363101217,-1.0115343467380704,-1.0,0.0712470499879101,-0.368194511937718,-1.0057600247142027,2.8782764096113578,-0.14047582904987502,73.38842975206612,0
-0.6372063132218435,0.8923874907326378,-1.2907251806254465,-0.19592212299175085,0.9786800363458971,-0.6372830535025273,0.6679544618355834,0.5631387550234748,-0.33819855522338726,-0.3327332760415788,-0.006499755857882409,0.0010766005973356953,0.03911349186055929,0.6153684456884384,-0.9913959928821482,0.9616802987913051,0.4741167662632208,0.3256241389419701,0.7842838427606799,0.14939083410125534,-0.43827709721959185,0.16670538891777675,0.59785235574908,0.4373520300834071,-1.0115343467380704,-1.0,0.0712470499879101,-0.3266021073673988,-1.0057600247142027,1.293989438367305,-0.1291984762798258,76.71924290220821,0
-0.20574061953565068,0.1506420571898159,-0.3397759669489372,-0.3306334101451167,-0.09226620648324887,0.32163318393970897,1.7506942152199245,1.8751208793068572,1.0145702655962145,1.0321705208049392,0.13777202456877657,-0.10121915307951569,-0.09178394982051977,-1.0282353601838,-0.9913959928821482,4.185774360678495,0.9167105555218381,0.9575296803200125,1.981787656925535,-0.9151042251079261,0.6905120322859801,0.3063963284802445,-1.0353973227427193,-0.22385297536945986,-1.0115343467380704,-1.0,0.0712470499879101,1.047889823325653,-1.0057600247142027,-0.5595226942967089,0.10758848517270506,81.00848983792127,0
-0.8858683612815857,1.1418468072732033,-1.2058228165551597,-0.5208996321205307,0.49067014978007023,-0.9574388177053399,0.2171915299081239,-0.1733211695660649,-0.7509485816849962,-0.7590714958905209,-0.12891935161913962,-0.1034600986561995,-0.09312200259607434,-0.9691695758800194,-0.5864524001216215,0.8130451135669509,-0.17014298306233328,-0.3100219789287823,-0.13662295434577143,1.409209782075935,0.19248648878487173,-0.6866434090824617,-0.9745707099308095,-0.26178434757880353,-0.5584035760273511,-1.0,0.0712470499879101,-0.7660648750048464,-0.559328193087658,-0.8049492330096206,-0.05321676842417788,78.8418004738089,0
-0.7320034472057325,0.8963502262428203,-1.030177489543979,-0.6265132812487696,0.19163487940206256,0.23096979330786785,0.4221251580032649,0.4372111715032987,0.17662546571997254,0.19241758395599334,-0.23999398075343553,-0.09793722979540691,-0.09255417185886507,-0.4697976736350523,-0.9913959928821482,0.8927636191583994,0.04866723521397064,-0.1262635707036487,0.05027324165738078,0.860973079226944,-0.1928122791879299,-0.7905887153166777,-0.47561833593986064,-0.12816340141626914,-1.0115343467380704,-1.0,0.0712470499879101,0.20799093509881847,-1.0057600247142027,-0.3086745090418925,-0.07201741515886605,76.09908735332463,0
-0.7478985183687987,-0.7159993601780208,-0.5642472759820821,-0.9201838872431072,-0.6185507158843991,-0.33077854053319994,0.913732884516857,0.9034487205765482,0.004224475522716662,0.01736046750203181,-0.26348652642644993,-0.09850653676707355,-0.09105292030625353,-0.33112842738991105,-0.9913959928821482,0.39594184523483694,0.3757354739088117,0.6784301792803692,2.4967712339093495,-0.46566306276625546,-0.11788010348498881,-0.5334849246939571,-0.3379634599764316,0.01308781057930603,-1.0115343467380704,-1.0,0.0712470499879101,0.03059989818134807,-1.0057600247142027,-0.34615866003104556,-0.0268456696172729,79.52368625420658,0
-0.9531297392459613,0.2569232337551205,-1.0969526290707357,-0.703137061381604,0.15890044910424403,-0.7456676109905529,0.9537987014772533,0.6619964730722758,-0.26972605825583384,-0.26246899860132916,0.21903326326324546,-0.10016854129602104,-0.0924018042364811,-1.0307768634885552,-0.9913959928821482,1.9795939959103948,0.35334114490858826,0.3621434510158884,1.8909475156249032,-0.3760637406923218,0.6168346957719444,-0.8478748634979832,-1.0378851705501697,-0.24896100648394298,-1.0115343467380704,-1.0,0.0712470499879101,-0.2546480977343501,-1.0057600247142027,-0.46890733164836396,-0.008019422069316731,79.62674961119751,0
-0.8451461821066343,0.31568536411136305,-1.1657577328391056,-0.7347672716052144,0.1845069487592971,-0.305169812268517,0.7091885089748439,0.5622420001088094,-0.08157582393575258,-0.0700606577430781,-0.0580675957925756,-0.09997426903793415,-0.09222274140442888,-0.9294777615539936,-0.9913959928821482,0.13216769665972286,-0.09018806780178693,0.6631500002271127,0.9149389891579672,-1.0012422642947283,0.5063120769483235,-0.24648601987390084,-0.9340854994958185,-0.2492284260430595,-1.0115343467380704,-1.0,0.0712470499879101,-0.058289979195274545,-1.0057600247142027,-0.4533804103689254,-0.07643210777351,79.3010325655282,0
-1.0616635218841266,0.5335277794169648,-1.0619446492548414,-0.7817545685643084,0.02711818636761864,-1.5007622998285537,-0.3416018687005352,-0.645292803037844,-1.289038449083782,-1.322261169733591,-0.21786752213026434,-0.10166135734984039,-0.0933429664108039,-0.7644351100154769,-0.9913959928821482,-0.40629254607361404,-0.46542532433661254,-0.20120629592444322,-0.058006982812862234,1.3175914868892877,-0.059173525362534125,-0.9453218017079997,-0.7654134927304536,-0.2764072694497549,-1.0115343467380704,-1.0,0.0712470499879101,-1.354294701065734,-1.0057600247142027,-0.601531949126775,-0.12961955481802892,83.76006232147495,0
-1.1528396532920955,1.2338842147181708,-1.4679374975775215,-0.7253105392470481,0.48300171254827995,-0.24746958793785645,0.2978985308111633,0.2750592174169002,-0.21635043526185177,-0.207786599835281,-0.06188822386783825,-0.10313493494512371,-0.09274122270394235,-1.0000752057901556,-0.5864524001216215,-0.01378526645203381,-0.31219501326754484,0.16334989636812325,0.38731035420369025,-0.5085816145623606,0.24428364839870756,-0.4451972432472154,-1.006798543332836,-0.2740987311699534,-0.5584035760273511,-1.0,0.0712470499879101,-0.19874246638532522,-0.559328193087658,-0.7634576070525891,-0.09118601392909198,84.63352127114301,0
-1.5024639701968219,1.393156467475506,-2.0545259365882993,-0.9124245171030733,0.8048058229889602,0.08866051027140187,0.39046707225569555,0.5712989709662746,0.0610832301422485,0.07518353704099133,-0.022434072378418192,-0.09621947989970453,-0.09016258964082982,-0.8762197574160632,-0.9913959928821482,0.3063599882317836,-0.16696994460413184,0.46608852449173405,0.190531672550871,-0.9551265347694385,0.835848723202559,1.2383311058391817,-0.8797320066597939,-0.24772237245931042,-1.0115343467380704,-1.0,0.0712470499879101,0.08928323820499441,-1.0057600247142027,-0.20653384167904376,-0.10375561605545491,73.49282296650718,0
-1.313041501949936,1.7086124475266742,-1.8070483661502021,-0.6106173493646724,0.9484792306841326,1.4614661425655575,1.7262818019035728,1.7797002891195572,1.8312338193894444,1.833682452410467,0.2302323183909647,-0.05584927773451128,-0.062075949844169524,-0.550055399022395,-0.9913959928821482,3.754424058501586,1.4312291316456085,2.0180376890348954,1.8513447946328172,0.08916367810526478,-0.027319328899940452,0.764754651229858,-0.5498809261309162,0.18521218020923197,-1.0115343467380704,-1.0,0.0712470499879101,1.8330022892434543,-1.0057600247142027,0.7894358352229107,-0.09319292753019799,84.67692307692307,0
-1.4078101121921034,0.019177142665594307,-1.4606011355815152,-1.2003564222646776,-0.11959557089081871,0.8618403183675271,1.4278315932823729,1.3633685753494937,1.1777165614295422,1.1935909732601055,-0.1776891040940354,-0.09106958461433985,-0.0873416023684277,-0.4611177090907843,-0.5864524001216215,1.6676353034180211,1.0927472179707896,0.6481028293337853,0.7695752353872657,-0.11770066734132634,0.6645125429832435,0.4548973957749695,-0.4538275115329553,0.16335074221291074,-0.5584035760273511,-1.0,0.0712470499879101,1.2072845750168038,-0.559328193087658,0.031797577902935095,-0.02255739850915713,80.50314465408805,0
-1.2407328442865193,0.47679925159804143,-1.5296911466118661,-1.0121378118539948,0.181939542461429,0.8102788186266289,2.126801667621875,2.6531673631425354,1.6731796667000813,1.679815467869946,-0.027016023197253616,-0.054344750094577954,-0.0492232331716334,-0.10486061144761079,-0.1815088073610948,7.983780049805568,1.5327023440265222,2.5211310475338515,1.7281483763957874,0.38598556695700154,0.29180615015487427,1.090958269308605,-0.08677368223676418,0.5885637461306126,-0.10527280531663176,-1.0,0.0712470499879101,1.6835052066947296,-0.11289636146111386,0.808810002149534,-0.0921086912862974,82.22222222222223,0
-1.517966110611008,0.7904500681949689,-1.849998135893812,-1.1056274451384307,0.36854944232226433,2.857488521461998,1.8729477888289452,2.190859009745972,2.991496864586177,2.9456281877768182,-0.0983483700249439,-0.03666402069709278,-0.050865690837087425,0.5027866067988626,-0.9913959928821482,3.2355273235866306,1.2973299285019184,3.873971182873424,3.2082648839593593,-1.3358862634189226,0.6854340417107159,-0.024351057417686277,0.4990061366960585,0.9468073493518397,-1.0115343467380704,-1.0,0.0712470499879101,2.896650323878753,-1.0057600247142027,1.0031956626669405,-0.10830846592525224,80.80061585835259,0
-2.0552074815687504,-0.41058368392218747,-1.964708922248843,-1.8010609939389668,-0.3946120797190339,0.23380323080924015,0.26106686846220845,0.2079950629875086,0.11656788896509775,0.1315252828167701,-0.3267991352969269,-0.10516602838239093,-0.09293972735892941,0.21347606961001772,-0.9913959928821482,0.2301334554596324,-0.362017630043618,0.6052621875313553,0.7725336996993184,0.15124611323262366,0.3783884066197044,-0.8849392431971829,0.21265783986902118,-0.19380489790650934,-1.0115343467380704,-1.0,0.0712470499879101,0.14637834105285374,-1.0057600247142027,-1.076275274699635,-0.08078093429586043,89.3731816979635,0
-1.6311555747478743,0.8569817501677662,-2.0011770517823892,-1.1252144662905301,0.487393328584107,4.462993567975924,3.0738896734437877,5.199005554737621,5.365725433778387,5.132298836787871,0.09011728896525543,-0.0787891328423097,-0.08603111799878721,-0.6878066636781643,-0.5864524001216215,4.5762650102877815,2.5152228499580844,4.867355138001142,3.9043080153624614,0.04255063821936105,0.7367288434768071,0.26191423054577323,-0.6854673050617516,0.27272452989375706,-0.5584035760273511,-1.0,0.0712470499879101,4.907284063820574,-0.559328193087658,0.3965568550380925,-0.009867424358382582,87.3855702094647,0
-1.6682167838944124,-0.03048060174850219,-1.7441550880679344,-1.2156596244853,0.13018603656229796,5.036176081787086,2.8532310551782945,4.4533083449117035,5.579524608713885,5.32382626186594,-0.1051786942411397,-0.10085754374158552,-0.08874139693062888,-0.9144166803528635,-0.5864524001216215,1.21035010443716,3.249668763519189,4.951502958457089,3.5097773559520515,-1.0929712022756444,-0.9903244102123179,1.3920980297810261,-0.9184554954517156,0.05391116259116211,-0.5584035760273511,-1.0,0.0712470499879101,5.07854988897421,-0.559328193087658,-0.5269738306601043,0.47917141239366623,87.83987522744997,0
-1.4683978439680696,0.7880228775948288,-1.7241047395060336,-1.0404002398987708,0.330916671061408,2.124891271357618,2.180162924747475,2.7747014814020554,2.692849666810042,2.6623042612368155,-0.002883599229046449,-0.07342626786133329,-0.08598121125665954,-0.4794007410218772,-0.9913959928821482,3.6004461674793826,2.2861874837498624,2.589680400256036,2.209727501486914,-0.7708269470869363,0.8993900877203734,1.0560490415912607,-0.484207567670999,0.4729511995247955,-1.0115343467380704,-1.0,0.0712470499879101,2.6283764668464857,-1.0057600247142027,0.5103718589168444,-0.03816077295516874,93.07890665291389,0
-1.262336364317128,-0.19010549388374298,-1.3139807358846316,-1.1034990068014074,-0.137229598357755,1.159995123493941,1.2929436523065096,1.722587535319897,1.3085212512261903,1.322536663239119,-0.17099043317011509,-0.09740795800769746,-0.08988230188198541,-0.7074542332123924,-0.9913959928821482,0.7372560039779785,0.41774667117382125,1.025522511051102,1.2097474422989385,0.41587429894675837,0.013604724026018027,-0.05063499795470313,-0.7133338117959698,-0.11998711963940238,-1.0115343467380704,-1.0,0.0712470499879101,1.3341453519129496,-1.0057600247142027,-0.2755625201357113,-0.03314638093239464,94.49214659685865,0
-1.5972771217743094,0.0031522548918046203,-1.7020956535180147,-1.482414915306395,-0.24418233966105057,0.7569455981467658,1.1910542573863598,1.5212399310064928,0.9494767068325886,0.9675802460525122,-0.29369259340100684,-0.09815863303029104,-0.09078681418516016,0.1410241386846896,-0.1815088073610948,3.1765628577653926,0.8660966441204592,0.47747198000976554,0.40674269001442453,-0.27425322488360876,0.6204022871132263,0.837342749503401,0.14368376093107513,0.44722627217546534,-0.10527280531663176,-1.0,0.0712470499879101,0.9839270326078855,-0.11289636146111386,-0.3230112203580619,0.029305198889854202,87.34197302300979,0
-2.018815445885659,-0.68683035705991,-1.7415196958946118,-1.862462398623471,-0.683310161581941,3.328706084166277,2.027671128555039,2.405932106246759,3.4763053115368554,3.4014606832128473,-0.2991221946908053,-0.10331769400670902,-0.09198912552299764,-0.35588379597848774,-0.9913959928821482,1.226397249617535,2.3369682973855403,0.8703271862311257,0.3334738524687773,0.24207967490008234,-0.05994499516078835,1.7177826990355278,-0.36769518539237595,0.63282485120495,-1.0115343467380704,-1.0,0.0712470499879101,3.3244304542376124,-1.0057600247142027,-0.7864704334354511,0.5439142553158315,98.63858207038274,0
-1.8155088302670475,-0.2569889162536031,-1.7046242054680945,-1.4526706631029318,-0.20448888702953688,0.9520437282868347,3.169425133145203,3.347912409889628,2.81090179457603,2.774532973052649,-0.1960317579359518,-0.07489765761885159,-0.08849844418154174,0.2114891213118741,-0.9913959928821482,3.5407055536264638,4.491162765707808,1.8295978808833482,1.037852174306623,0.8873483608656048,-0.1189175409565385,1.2666006402725642,0.2058696234773828,2.500115435659428,-1.0115343467380704,-1.0,0.0712470499879101,2.734864616499285,-1.0057600247142027,0.48096571485044404,0.05037928486029955,119.75051975051976,0
-1.5877688117041782,1.8568808196537616,-1.8016707415803142,-0.535879527251985,1.0370885296223968,1.2770990358575827,2.6328148773228697,3.0608331233611414,2.4822679543011117,2.4613427145185947,0.03855457738858194,0.025077463101529075,0.062337382029308074,0.7191553132359467,-0.5864524001216215,1.8243780200740145,2.854793811243028,2.777129972669153,2.9814821063143913,-0.9357986483760338,-0.7004034776416427,0.6154642477723548,0.7378227531747048,2.3011677204514442,-0.5584035760273511,-1.0,0.0712470499879101,2.4369641481846687,-0.559328193087658,1.4304785302430671,-0.10836930993683755,110.40250914793518,0
-1.5454931510427736,1.3743664530533282,-1.659395177628638,-0.6903125468446036,0.7084943051570917,-0.35999296425040744,1.810666349534524,1.3405125348073903,0.5697136088850433,0.5886134450786836,-0.1817831868788481,-0.08830972264060072,-0.09191572546192299,-0.34415520243570225,-0.1815088073610948,-0.23864635980296323,1.8787719698794532,1.144186628218401,0.6423698630066749,1.017586191542071,-0.7949135382307438,1.0511728514350245,-0.33981025304175466,0.49753958724200564,-0.10527280531663176,-1.0,0.0712470499879101,0.6065120201826829,-0.11289636146111386,0.13214571459865887,0.011094914955285237,99.35018050541515,0
-1.920340694020314,-0.8173972483535645,-1.650776732953718,-1.9216545381986598,-0.8436041468896281,-0.8973186774152999,2.1690333750649944,1.7722285743194262,0.4809014708355298,0.49945316191598527,-0.33280310177558226,-0.10707689091292799,-0.09351706815884524,-0.07284792977100116,-0.5864524001216215,-0.41505585413405016,2.5414387118673245,0.9362305646351269,0.2524595146195807,-0.38304664450748904,0.3066550522517523,2.239184843804717,-0.07801803980070485,1.057275372973381,-0.5584035760273511,-1.0,0.0712470499879101,0.517183164702915,-0.559328193087658,-1.611307323452797,2.282708910528334,101.94690265486726,0
-2.0924277231805726,-0.917487734289116,-1.7569403014493241,-2.0363746703384664,-0.8867433290261753,-1.2718830136624446,2.251975562221148,1.8085862755576634,0.2895795639342408,0.3066812588021445,-0.3406070049454602,-0.1084151743847118,-0.09357664415233001,0.0619344438674527,-0.5864524001216215,-0.45197446797424706,2.8551362822813777,1.094689609191086,0.3341817728970643,-1.0379643921408057,-0.94326547665599,2.1351485101353154,0.07433965759159644,1.3829274582667714,-0.5584035760273511,-1.0,0.0712470499879101,0.32334399493918464,-0.559328193087658,-2.7946509095020513,14.691964140655026,98.14696485623004,0
-1.938272718689784,0.049152865219068594,-1.874963134724882,-1.0595561849319795,0.449997028955949,-0.36630105454154727,2.505171905055999,2.1718527438111543,1.164442972225385,1.1804824777529392,0.12975527724777955,-0.07524766194280093,-0.09125418890181704,-0.6769145927182075,-0.9913959928821482,-0.26472715425301363,2.9405725659862294,1.7050002884982816,0.9697221230954811,1.9622009029544567,-2.4170313170949558,1.8142514350278796,-0.6792194399513787,0.36641359831450754,-1.0115343467380704,-1.0,0.0712470499879101,1.1943648746899174,-1.0057600247142027,0.4737824144010173,-0.00735528108151619,98.17547937245789,0
-2.2896541809186317,-0.9778064955094841,-1.9685907836933318,-2.2530173623385092,-0.957617255512061,0.35906263850266246,2.4404167034544075,2.153094440120379,1.6255134788143288,1.6332956220361399,-0.3407492681458979,-0.10697977255543488,-0.0927131542332229,3.4003093788105527,-0.9913959928821482,0.6114864453976067,2.8708769689238314,1.5227054755939151,0.9746207563684725,1.1196215935681582,0.08172616321394524,1.6003288228791797,3.168962020956169,6.077964797895729,-1.0115343467380704,-1.0,0.0712470499879101,1.6381934114222414,-1.0057600247142027,-1.5714090705997354,2.392166956097425,101.92037470725997,0
-2.3459969622722343,-0.7511306039426209,-2.1267855409081866,-2.1480772696460373,-0.6759795409682913,0.6209636013086837,2.6527225575597004,2.309764226999728,2.0207701826050544,2.017422849994972,-0.3332368991254942,-0.10422227550797794,-0.09251149422631276,1.3925888172438128,-0.9913959928821482,0.7853168177660613,3.312557533576011,1.8697116212902978,1.0971726979747447,0.4627544746474886,-0.12089668900183284,2.1424083163669683,1.3646374558757037,3.71971537217618,-1.0115343467380704,-1.0,0.0712470499879101,2.0107762888808796,-1.0057600247142027,-0.9132555755720162,0.9622789537325305,111.82527301092044,0
-2.353946109517205,0.3339906543314356,-2.2107975697847833,-1.495616621447425,0.22180190340201295,-0.5109326519782993,0.4094200886842099,0.3553003823048897,-0.3613129768425854,-0.3564819474809432,-0.06094298429236417,-0.0872969166932576,-0.09124321172159139,-0.6450341117450689,-0.5864524001216215,-0.3458904597094358,-0.22411792612634185,-0.10570740183647065,0.08950775066277715,3.4606631373052665,-1.985762902301165,-0.9367641406611967,-0.646913126865413,-0.22477930665844692,-0.5584035760273511,-1.0,0.0712470499879101,-0.35095196350551816,-0.559328193087658,0.16559609054476987,-0.12269867119236265,109.02208201892743,0
-2.527194472737489,-0.8941912588434859,-2.2125782401721636,-2.4082855919114787,-0.92086280745837,-0.32915315407386664,0.8947517777397048,1.206764186050026,-0.004737980720151037,0.008238041442596045,-0.3386704801005761,-0.10733535798386158,-0.09318543869769833,0.9881879859911041,2.2481527492020654,-0.2205417368063339,0.877363514141903,0.10319812452379135,0.27995594182846084,2.3806525728057073,0.39600202413918406,-0.33936022737535154,1.0083618905798652,0.944887398261403,-0.5584035760273511,-1.0,0.0712470499879101,0.02133367635996327,-0.559328193087658,-1.7303120848670686,1.1772179791287287,93.27077008004416,0
-2.184240551683178,0.33917091068272553,-2.1678478000411734,-1.677045782985578,-0.04642449140157733,0.1250766220637021,1.8585635320984177,2.029343905008342,0.9554742355502961,0.973535849227031,0.05018178218545224,-0.08286693266659532,-0.08893710785495404,-0.7081532525164939,-0.9913959928821482,0.672463996975243,0.8539490093132127,1.0064627549645904,0.9932187160181445,0.5229763933280094,0.3742141053737436,-0.10323385956985731,-0.7119258785617911,-0.04385230671715523,-1.0115343467380704,-1.0,0.0712470499879101,0.9898291737411424,-1.0057600247142027,0.295410783714393,-0.07205141620612611,90.32932566649242,0
-2.3039489513222176,-0.8980432433078079,-2.007302557914977,-2.241405249385889,-0.9063366928783267,0.8755489673479872,3.532234379885053,3.1444557281722814,3.1815917157538878,3.124959625092216,-0.33776878092900264,-0.1044331788703557,-0.09011422622069414,2.6928284563824523,-0.5864524001216215,0.4981990664117109,5.462389540648499,3.304155511592721,2.00819692187937,1.6169903590568626,0.5934753037727298,2.2551351322005284,2.7470290803678763,9.179894612414033,-0.5584035760273511,-1.0,0.0712470499879101,3.0655062614714,-0.559328193087658,-0.9464915073725169,1.664812182435802,90.60082304526748,0
-2.227837641307243,-0.947988651083745,-1.9078343100759203,-2.174238201611221,-0.916471191422543,0.9026420184476124,3.7885530672735777,3.0990893508284287,3.523780471475702,3.4458306316555487,-0.3397839938959249,-0.10418347146892798,-0.08996926351800393,4.220115429947985,-0.5864524001216215,0.5797447916028629,6.132141892869938,3.642376746867938,2.160637368353256,0.85549332966096,-0.03715897676679043,2.273070643297272,4.038211267388292,14.440507570611887,-0.5584035760273511,-1.0,-14.035668847618199,3.365820143889028,0.7799673017919746,-0.9073110461929655,1.7559495842057828,100.75801749271136,0
-2.2458062210244987,-0.8305924449471236,-1.9934133288934115,-2.2013690548439087,-0.8693119915301234,1.1052907452645602,3.6347969888235827,3.1148444414656455,3.4771270460507337,3.402229072192754,-0.33368479063104783,-0.1051570189159456,-0.09039743067385422,1.0230404471760826,2.2481527492020654,0.5293942713461138,5.363249709097529,3.5059029974538602,2.1686810800969,1.3314490558194163,0.624393698856642,2.1435098289286074,1.0435948796633474,4.9593493283737065,-0.5584035760273511,-1.0,0.0712470499879101,3.325147605923407,-0.559328193087658,-1.0745221346620157,1.9968074838161527,101.73618940248026,0
-2.294819220093043,-0.9143222986454042,-1.985898899858667,-2.2290387532252103,-0.9111336888559224,1.1863768134797674,3.8926935688264397,3.4622422877418755,3.8681479588950745,3.7662723397207114,-0.3394173016069864,-0.10566856333654817,-0.08898405811501424,2.838023892159241,2.653096341962592,0.35587257294587454,6.527065380575889,3.783218404180881,2.4441157713995625,2.4543834912618747,0.4874999069251561,2.009333414850281,2.8563327245043775,11.285549187835555,-0.33183819067199144,-1.0,0.0712470499879101,3.6634402500802308,-0.336112277274386,-1.1818661139353615,2.8498773711661998,97.47343565525384,0
-2.2625607769921614,-0.8611673876938996,-1.9627857982304724,-2.1299990149100556,-0.8088765985447804,1.3563593428965657,3.7221028365402096,3.1098655158050654,3.772460776892869,3.6774788185729737,-0.3353606647119482,-0.10495414348846067,-0.08939226833785177,1.4859177535748604,2.653096341962592,0.4709496746173788,5.979230205303152,3.780929034924585,2.2973225245649824,1.3425906488716992,-0.24710349498268852,2.0550930299917862,1.432196110164467,6.752151861440749,-0.33183819067199144,-1.0,0.0712470499879101,3.581197923920428,-0.336112277274386,-1.0361797578511156,2.0927742589413874,98.7710774507002,0
-2.1994973501029955,-0.6080529762905053,-1.9608626742121018,-1.8159331200406983,-0.4169079765163096,-0.6398076175317451,1.8206527394663132,1.637649564661707,0.3778965629913026,0.3957870069509649,-0.25573824486093494,-0.09449981382441547,-0.08954020562053808,-0.1393346258584542,-0.9913959928821482,-0.17422374480971867,1.559464114213936,0.8245038182804512,0.3245068296004642,0.5664019932884456,-0.9068758421637334,1.6642742100991712,-0.1466841295155182,0.5701964192306621,-1.0115343467380704,-1.0,0.0712470499879101,0.4130629161044547,-1.0057600247142027,-0.11748307738415761,0.04836666658737255,104.21711899791232,0
-1.8331893363995924,0.8092886127187213,-1.9360401290120222,-1.127773980746444,0.4223974112538667,-0.843587446132984,1.6494722433096034,1.5451542054908276,0.10459017040422625,0.11936953857629837,0.13028917173770163,-0.06772631979379842,-0.0904516273244927,-0.5809245633301393,-0.9913959928821482,0.08535965492497607,1.7892315377420018,0.8661899318387889,0.44662993705983034,-0.38476882016342107,0.3388193131646153,1.7484215514708938,-0.5975203665740006,0.24175838453160697,-1.0115343467380704,-1.0,0.0712470499879101,0.13406713465234,-1.0057600247142027,0.6137525799931446,-0.06808947820201738,122.19092331768388,0
-2.031870685039558,0.20641328448368101,-2.047795002524002,-1.6068342601212438,-0.07226746268932879,-1.3611087791431704,-0.3051817220569568,-0.36699185164449866,-1.1835923438302276,-1.2112222325437079,-0.061201615843091285,-0.10252075596988346,-0.09287609528516848,-0.9860835588444554,-0.9913959928821482,-0.2909065172711714,-0.38382951795369563,0.00585147750538755,0.010817094339439202,-0.5041314330408455,0.557361452350656,0.5714073969885376,-0.9918832854899486,-0.27717610310911905,-1.0115343467380704,-1.0,0.0712470499879101,-1.2376139776468167,-1.0057600247142027,-0.6913015865490387,-0.11104782622376733,106.9417225373904,0
-2.3165987355717013,-0.3786109413454489,-2.2527501641114602,-2.0398232792895925,-0.4207590859631118,-0.8147634569574193,0.6235729584942006,0.8176897024316532,-0.48485846450424563,-0.4836705272834674,-0.2554939150556482,-0.09787943011560538,-0.09287703966897919,-0.3564208788514701,0.6283783781599586,0.36328526164829467,0.34654864723109746,0.5430173182203092,0.7645349624252349,-0.8335425052263105,0.022375156289268342,-0.10705908750368347,-0.3507569746289217,-0.0057052781680684735,0.8009887361048069,-1.0,0.0712470499879101,-0.4816198208138935,0.7799673017919746,-0.30498025662217143,-0.03692768502111291,97.47223691168692,0
-2.461681200376059,-0.3814733240799162,-2.3812789526725613,-1.9948835938952296,-0.24249325657034784,-1.3705421402977038,-0.5719160817204183,-0.6918905143143196,-1.2383899747765308,-1.268884732530489,-0.27131882258054,-0.10306711661088207,-0.09265754082324502,-0.6235133862113067,-0.9913959928821482,-0.5040827445333673,-0.4541772569247053,-0.1329203161305817,-0.27366671891105776,-0.5373322588561581,-0.49032190508555756,-0.14205621180736536,-0.6261466395396851,-0.27042451481142865,-1.0115343467380704,-1.0,0.0712470499879101,-1.2981626509870214,-1.0057600247142027,-0.7551094451096356,-0.1242244285331692,86.62394257882595,0
-2.3709167184224738,-0.3727780427251476,-2.1673135989249595,-1.7429734869184352,-0.12959494278777875,-1.6988105422214648,-0.23748416644444426,-0.5032030295656901,-1.4043294511767797,-1.4440502687576857,-0.3028462196143298,-0.10611160322168556,-0.09352647169978773,-0.7055768753365924,-0.9913959928821482,-0.49386196797907855,-0.48128341744779235,-0.3824954616651213,-0.37687576680235985,-0.08788854516727056,-1.636346163637441,-0.5043933623566583,-0.7176976233371392,-0.2776903525913851,-1.0115343467380704,-1.0,0.0712470499879101,-1.482674796125537,-1.0057600247142027,-1.2905808147540865,-0.11806323181157388,91.09119662625196,0
-2.444345230070755,-0.30050247434509864,-2.1857257307304705,-1.8587982516128994,-0.25735718776853167,-0.9844198779868812,-0.6783589763142239,-0.892214968741769,-0.9807230267880337,-0.9985230808024638,-0.3212433026151354,-0.10862044876004975,-0.0936242355350514,-1.103548988283207,-0.9913959928821482,-0.5229029405863701,-0.5227557283020624,-0.630526137481281,-0.6438806739377102,-0.9096589680980534,-2.3426421213040163,-0.6706299140700855,-1.1126796748663288,-0.2857934708233446,-1.0115343467380704,-1.0,0.0712470499879101,-1.015078624131532,-1.0057600247142027,-3.621712593147186,-0.07320412765404473,89.74292391586602,0
-2.102547546978676,0.9958023067959143,-2.3231578712284726,-1.164199912792714,0.7439312684000345,-0.1962496906000907,1.5611609317955866,1.5837193855478098,0.5026487041773496,0.5213045886488908,0.3059014676404609,-0.09427874610681573,-0.0881026014659301,-0.9846225986474741,-0.9913959928821482,0.9930001887907131,1.4030700698424619,0.8028723478710942,0.36998962173422895,-0.7905957688152251,0.07757729900892768,1.2295929881087402,-0.9902723746453475,-0.1681882992149472,-1.0115343467380704,-1.0,0.0712470499879101,0.5390948544769197,-1.0057600247142027,-0.10682566175951828,0.03149534077798486,89.5104895104895,0
-2.793197091996479,-0.9182928358701309,-2.492072264175356,-2.630370619912518,-0.9342065638749214,-0.09894349914909302,0.5472282840089601,0.7786377926382878,-0.008306405192762833,0.004605319497829109,-0.3417592259208641,-0.108653137207788,-0.09365139863155435,-0.012350592551849775,-0.5864524001216215,-0.3622922745863608,0.3312703286431111,-0.10398595463118909,-0.3475625600517264,0.04902793328900682,0.4336201600075787,2.171716727826123,0.002758707286497606,0.11148566401118812,-0.5584035760273511,-1.0,0.0712470499879101,0.017643078760478326,-0.559328193087658,-3.9389623401206375,19.623352251452044,87.34197302300979,0
-2.773457051062002,-0.7061869287317242,-2.49944423957911,-2.491698820916843,-0.7533395465224753,-0.18764542447913343,2.1057476813733507,2.4810444720339992,0.9322820092353977,0.9505007351744399,-0.3255222170863067,-0.10648556217064227,-0.09278752400470922,-0.30643005589523226,-0.1815088073610948,-0.28343229625679944,2.716091736066129,0.9199504779183779,0.3154315914675305,0.34856961585737045,-0.3281253739833225,2.1602324989746187,-0.29904989164481777,0.8206847896267739,-0.10527280531663176,-1.0,0.0712470499879101,0.9669958812514577,-0.11289636146111386,-1.3978887739463441,1.7394230481442254,88.93463715903242,0
-2.628863577549588,-0.3292806721400362,-2.485875531227273,-2.348635433959968,-0.5868297354410023,0.6032169084094994,2.17226192361505,1.8970714097847088,1.5611473719315256,1.570391293369548,-0.2723652434976446,-0.09635629200902886,-0.09038638604828882,-0.07115777124721062,-0.9913959928821482,3.929838836515146,2.490763289658016,0.8431382494391438,0.2600638685226987,2.0755354018932533,0.7510638204089531,1.7017505505020556,-0.08496067042898615,1.037205480680361,-1.0115343467380704,-1.0,0.0712470499879101,1.57683870734724,-1.0057600247142027,-0.21413745580194074,0.17400631721071708,87.88166341054982,0
-1.6437866943140917,3.5960526279105425,-2.4762242977276725,-0.40324279392078094,1.843254107152986,1.4915134342964227,1.7699909868068369,1.5587272536930263,1.8865002806894575,1.8873456992914273,0.7242222972802433,0.10569521969900626,0.03376406490557308,0.047070278827402265,0.2234347853994319,1.9246384532192817,1.0292163855901768,2.2432615703855676,4.593198344176025,-0.33131299498672157,-1.7506548823261783,-1.0020506561612177,0.0458638208485075,0.47259737790578676,0.3478579653940876,-1.0,0.0712470499879101,1.8850068791791341,0.33353547016543034,1.7560510176856552,-0.13159922201685703,85.37745604963806,0
0.6429709893033514,1.0837671310686225,-0.2760991938962221,2.7887680974356543,3.7586067686862306,0.9599532599639696,2.0003684577477276,2.1970457194925186,1.6768604134431198,1.6834054424801241,0.3904768363238153,0.6092055259921829,2.089581170037673,2.2385717534317697,-0.9913959928821482,1.236181136241568,1.0927669203116648,2.6973198886842953,2.4234803892611945,-0.6024820993878196,-1.8167593095062722,0.2242477563724638,2.0938819373888204,1.9706391253701745,-1.0115343467380704,-1.0,0.0712470499879101,1.6869997662985963,-1.0057600247142027,2.5903074531921635,-0.138049165841992,88.73949579831933,0
1.191064599556055,0.08013750289834463,1.3796037456976131,0.8511617697939315,-0.2414122433922981,-1.0360456866014416,0.24281440074571797,0.045653295252436506,-0.79732640710062,-0.8072792970815429,-0.2627883676676251,-0.10573594076859004,-0.09233735131151373,-0.8863747899701268,-0.9913959928821482,-0.12034939402314675,-0.09851493210455696,0.3085820501892578,0.8785943334744755,0.032993961501203845,-0.04038260614469858,-1.0184999635675214,-0.8893599207667375,-0.24228478382936233,-1.0115343467380704,-1.0,0.0712470499879101,-0.8160700275357096,-1.0057600247142027,-1.1973353429997953,0.045000945995016056,77.43536711478801,0
1.0152611645473772,0.8905434255731617,0.7695816843889125,0.8209594992141469,0.29936459892708134,-1.5250968538762681,-0.018963038523520468,-0.5787468610402497,-1.2258689648060281,-1.2557011964423754,0.10174381543108502,-0.09967349223097655,-0.09276346141756148,-0.9970216436835921,-0.9913959928821482,-0.28459680881584687,-0.10235036585978285,-0.2514200155601328,0.0022265863982865648,0.3158284798253704,0.5238684894735658,-2.026377907408212,-1.0036559663527977,-0.26211315181555717,-1.0115343467380704,-1.0,0.0712470499879101,-1.2843109433569029,-1.0057600247142027,-0.4300097019994205,-0.0803152063051622,73.1041776837652,0
0.42515085823534643,-0.852164079177753,0.7925167189783692,-0.10566556059899569,-0.8842434860519353,-1.938617430927282,-1.0515495776884567,-1.1557725002701156,-1.6739108288318845,-1.730409965606385,-0.33697547607511047,-0.10792475667694239,-0.09328192051756361,-0.19763367174555246,-0.9913959928821482,-0.5274709534026379,-0.5269641741770549,-0.8329468283775051,-0.8380042576480353,-0.02101751603161361,0.6501158710155844,1.361253291231335,-0.20285769585424515,-0.2856098908453701,-1.0115343467380704,-1.0,0.0712470499879101,-1.7862084960692584,-1.0057600247142027,-2.1171796834768224,-0.14021336565693696,67.28162844627673,0
0.7043754382787422,0.2056923777206298,0.8254591211449024,0.7303796297322237,0.13278722452198014,-1.7935237336227106,-0.2617799409950239,-0.9169846889345997,-1.4758103229648276,-1.519762645834343,-0.12060477625373756,-0.09522072960971956,-0.09210980224267636,-0.7387189125304415,-0.9913959928821482,-0.3229945984108545,-0.3699664830582072,-0.5896493490406611,-0.21795232886932842,0.12656123075025885,-0.5332508095223139,-2.5610843699620465,-0.7385392493707192,-0.2602311412996668,-1.0115343467380704,-1.0,0.0712470499879101,-1.5626982908130547,-1.0057600247142027,-0.1534269645669729,-0.12591073715665005,69.83632112236944,0
0.7645732285363367,0.6784624213379361,0.9070494382946621,0.8889078724543046,0.25416473541987683,-1.876816372072589,-0.503878000984818,-0.7384534505065047,-1.5809267092969224,-1.63138584760442,-0.26314623775523194,-0.10291061741774873,-0.09228987670503505,-0.6617984664404922,0.2234347853994319,-0.4467663390376751,-0.43009615332379975,-0.6669296539141405,-0.6511153333313661,3.4301301430189004,-1.44029440792461,-1.3285358411501575,-0.6593899809051617,-0.2669062911385241,0.3478579653940876,-1.0,0.0712470499879101,-1.6809779251381598,0.33353547016543034,-0.7362218010748228,-0.11932250984817258,69.90897269180755,0
1.397294601578775,-0.4742583863248335,1.5747652201544804,0.8358046830584478,-0.445791297367326,-1.5197934156981039,0.767149109695746,-0.9389393700774462,-0.912311235903178,-0.9270695761614912,-0.25928940363104797,-0.1038957420522988,-0.09291464966760532,-0.7559048768190497,-0.9913959928821482,0.3230563398512321,0.5848400784890341,-0.31160454272251825,1.514484138673746,1.0508637727165067,0.4331784797369148,-2.5208241614301636,-0.7562271120437453,-0.11293738884448368,-1.0115343467380704,-1.0,0.0712470499879101,-0.9406050209849987,-1.0057600247142027,-0.8647607001098818,0.15691873092012032,71.29973474801061,0
0.9105329874764544,0.1923619982871989,0.9089369489052851,0.766374485659603,0.09873530941341352,-1.5070301000614634,-0.02490925463838817,-0.3948908804997237,-1.2149678582104666,-1.2442270998288278,-0.20904464417581348,-0.10329349003696804,-0.09274234583986918,-0.8656671679391635,-0.5864524001216215,-0.4713933088528063,-0.4450735777940622,-0.371157162676263,0.022707463601187583,-1.150864486096003,-0.8389258775153304,-1.127663654656877,-0.8724823073162105,-0.276766585274999,-0.5584035760273511,-1.0,0.0712470499879101,-1.2722593194006717,-0.559328193087658,-0.7833782622281171,-0.12135799705505142,69.89079563182527,0
0.7724190042286883,0.7371197951311831,0.7996037871201422,0.6260592089606571,0.026510116454965663,-1.789334963203603,0.13896984861974707,-0.9972879694108973,-1.360794540467068,-1.3980143549518083,-0.250134718126443,-0.1057116161260725,-0.09284721823622152,-0.9176189929671003,-0.9913959928821482,-0.49641138326217177,-0.4904546997941665,-0.45024761461135365,0.6330661140778894,-0.24256898814981467,-0.4178530055576487,-2.730381163582983,-0.9233872408872504,-0.2825595945284095,-1.0115343467380704,-1.0,0.0712470499879101,-1.4340977750189383,-1.0057600247142027,-1.1917105675418642,-0.1250624631743754,68.48407643312102,0
0.8341819447761673,0.23218102930502926,0.7414114788605581,0.5510250220162323,-0.01237257629301071,-1.0375720626197427,0.5313384571850756,0.16459194106567596,-0.6836953119291431,-0.68927438761317,-0.04776817236312047,-0.08964479583473618,-0.08874164658526505,-0.7151387269553918,-0.9913959928821482,-0.011307882653202242,0.2742427844434118,0.13164716505803276,0.6545317936790065,0.07727200550183047,0.5010752133044987,-1.3725774009881853,-0.7167731432098754,-0.14771122365142292,-1.0115343467380704,-1.0,0.0712470499879101,-0.6937790040452311,-1.0057600247142027,0.08541963640445573,-0.086751766234891,70.42179722294996,0
0.7114795066492812,0.33577451901038063,0.8918425131864354,0.523597803951807,-0.18945604752228276,-1.5564180227378466,-0.3572227051095777,-0.7015028507008175,-1.3311119889920353,-1.36665951453487,-0.12522728053655602,-0.09870529422891823,-0.08705590168522716,-0.831935185830995,-0.9913959928821482,-0.300403524852953,-0.30636445020816,-0.5792387451990737,-0.5452180231685999,2.5018222723089094,-0.6985310424702919,-1.1782805085741372,-0.833860110558958,-0.25841309784551914,-1.0115343467380704,-1.0,0.0712470499879101,-1.4010468297499554,-1.0057600247142027,-0.3597397237776656,-0.11247357575724028,69.89079563182527,0
0.7009419829061239,-0.4754124612044835,0.927455920934039,0.319321608112443,-0.47937026921049586,-1.8014510366255105,-0.09040218815483506,-1.1023749971473145,-1.4385423742692822,-1.4802690810539265,-0.288274814132809,-0.1021154015980018,-0.09297409495628099,-0.371038799264982,-0.9913959928821482,-0.33603397607382507,-0.19732114234120807,-0.5789357666390456,0.35410631678917703,1.6139845712406253,-0.29900282051416815,-2.022797981193314,-0.3853797445593553,-0.18200056744725943,-1.0115343467380704,-1.0,0.0712470499879101,-1.520935432601633,-1.0057600247142027,-0.6475026944761397,-0.07642377710523036,69.40988835725678,0
1.1880159715965986,-0.2879406333406402,1.1009288300726157,0.6982644588748612,-0.16878167049208162,-0.74202723809078,0.4140120143540282,0.16419376830911833,-0.5238411197744592,-0.5238916327643486,-0.18603586197124572,-0.09977045469092943,-0.09161833277600946,-0.7614315943579117,-0.9913959928821482,-0.28983124633774865,0.040570859577136,0.06895346486016052,0.3564015455579712,-0.4447703242083169,-0.0037307054538770093,-0.7620361738835857,-0.7627392347309792,-0.19883462392738308,-1.0115343467380704,-1.0,0.0712470499879101,-0.5230325335891153,-1.0057600247142027,-0.437457728780873,-0.05904601407124366,70.65678507538972,0
0.8640247384815062,-0.16341496471270783,1.0590830759691816,0.4879531973710264,-0.39278786998107496,-1.3806289194743797,-0.5384180572273914,-0.9088141558828088,-1.2404340799239373,-1.2710374437059266,-0.27096902325299616,-0.1062235184870033,-0.0930894063515774,-0.9024581119770555,0.2234347853994319,-0.4383618544752493,-0.46440943171321847,-0.6290812360688686,-0.5927311268095732,-0.12307160878436586,0.6651660009207271,-1.6123700816873683,-0.9066153812500076,-0.279855573833361,0.3478579653940876,-1.0,0.0712470499879101,-1.3004249341307181,0.33353547016543034,-1.3209832497505363,-0.10828121228850046,71.31865216237729,0
1.0776221942966593,-0.21166699796151955,1.116242595404085,0.6163599962856148,-0.2860040369868497,-0.9720461581084465,-0.08395112710109051,-0.14431231542779002,-0.8556401055253876,-0.8679821032734477,-0.17307697772928798,-0.0868367348230407,-0.09103157617063817,-0.3321995398833967,-0.1815088073610948,-0.3281827724426842,-0.2508168719006375,-0.21242214334034398,-0.15861801650245674,-0.0789798372071247,0.4412467857301017,-0.9212174494483076,-0.32625774591632356,-0.19438080332121768,-0.10527280531663176,-1.0,0.0712470499879101,-0.8791274442152941,-0.11289636146111386,0.18027518285959884,-0.12465639697764663,71.34967741935483,0
1.1195915038494602,0.553680510126582,1.0695890312547245,0.9778981487478181,0.21156605987235452,-1.415779813072748,-0.6044771861155946,-0.78234879330301,-1.2746846039476096,-1.3071263907528166,0.08567800448075168,-0.0947711364744819,-0.09223961599791776,-0.9176566515224895,-0.9913959928821482,-0.4632966223312906,-0.45032482102034177,-0.5140626611369147,-0.4977533412865865,-0.9192028518004001,0.3931504385533641,-0.3808779816055619,-0.9218320220736347,-0.2790042331708008,-1.0115343467380704,-1.0,0.0712470499879101,-1.3383703596812055,-1.0057600247142027,-0.13079218707887189,-0.13382826731421418,68.62549277266754,0
1.181862541553759,-0.508999639347436,1.344595765881719,0.558218604750222,-0.575512878733294,-1.7908080246527809,-0.8884451668888022,-1.0421891936244356,-1.564644364858164,-1.6140733643727525,-0.32031589138474037,-0.10742027039286046,-0.09321495800110262,-0.7493136137893466,0.2234347853994319,-0.5260372960920018,-0.5120099680089581,-0.7459362545383152,-0.7685195069775523,-0.9468349478052217,0.3352336088584431,-0.46428782774036526,-0.7478029383232735,-0.28338678494200925,0.3478579653940876,-1.0,0.0712470499879101,-1.6626095078505663,0.33353547016543034,-1.774355593236244,-0.12554823332734968,70.87413483722122,0
1.00835207143788,0.3666428474147845,1.0050219230083193,0.8547989745470724,0.11846379991282117,-1.1030573239864363,-0.6262182412012011,-0.7123256161337982,-1.0579281498126742,-1.079325743453006,-0.07936570217244185,-0.09855077395981097,-0.09243194626072525,-0.8786569028990722,-0.9913959928821482,-0.49417380444002357,-0.4653199894624164,-0.3012297342450861,-0.31132381830497824,0.753343874466065,0.7373122223533218,0.016362856404920877,-0.8880706485422548,-0.2793296789238083,-1.0115343467380704,-1.0,0.0712470499879101,-1.0994683702146788,-1.0057600247142027,-0.34915834841615967,-0.13307823683883718,70.42179722294996,0
0.7891467741699553,-0.39069107531756064,1.0207986626405077,0.3144989440323525,-0.5739589222898476,-1.0918797313856723,-0.6689658613087928,-0.7803144799286316,-1.0554254854924363,-1.0767037095331746,-0.2313157295161078,-0.10241946296102826,-0.0931383975379222,-0.7642245700162402,-0.9913959928821482,-0.4984715049592119,-0.45443638653645135,-0.5641698898523774,-0.6257313129423901,-1.080042195725065,0.889522797256413,-0.14556620201080595,-0.7693425420430429,-0.27473153907446607,-1.0115343467380704,-1.0,0.0712470499879101,-1.096727065278248,-1.0057600247142027,-0.680093604134268,-0.1260006468057465,69.3498452012384,0
1.0359419487362718,-0.12297566167502758,1.1151029663561618,0.6070918597294632,-0.29654391547283454,-1.3799705684128674,-0.6659952214188466,-0.8769219519171068,-1.2575337340598598,-1.289050533221902,-0.2634790572051586,-0.10474477078908165,-0.09309057635481063,-0.804053152854976,-0.9913959928821482,-0.4748670968340169,-0.4714708349626728,-0.5655311331327275,-0.5639044818955882,-0.09207638814641526,0.5890823099257982,-0.9095597244694894,-0.8077059939416652,-0.278244180291585,-1.0115343467380704,-1.0,0.0712470499879101,-1.3193600300830761,-1.0057600247142027,-0.9987230840159871,-0.12276624798161115,67.6126359399275,0
1.1601225433422775,0.15260357984951403,1.1216914467894685,0.7416953778531064,-0.13402034048541986,-0.9534690567058455,0.050719513170578566,0.03858349370884248,-0.8032561420201698,-0.8134474803179367,-0.1802936967472787,-0.09939482433238814,-0.09143858923414856,-0.759658090506773,0.2234347853994319,-0.006957596402265783,-0.16705684240383273,-0.1581663355967466,-0.05148429778905183,0.3270413824242081,0.6683930416669146,-0.7152690269527824,-0.7602730287068465,-0.23036954084317357,0.3478579653940876,-1.0,0.0712470499879101,-0.8224728142813977,0.33353547016543034,-0.4090410102466747,-0.09108484943661256,71.03594080338266,0
1.0889793074215703,-0.5392002080336317,1.3254713659212558,0.5512405600756777,-0.566121576748987,-1.1080439539444538,-0.7949627345946338,-0.9095819078427879,-1.079864288791121,-1.1023160855772514,-0.31962239381795743,-0.10705058638663593,-0.09325995328963663,-0.6590996084672406,0.2234347853994319,-0.5265362951107985,-0.5229123424662874,-0.5811779056273073,-0.5851938907565795,-0.9095557727065424,0.6897090037633704,-0.6339795834109685,-0.6545236347635571,-0.284936864663108,0.3478579653940876,-1.0,0.0712470499879101,-1.123512757869317,0.33353547016543034,-1.6002711739611402,-0.13745680413638456,70.53266859092102,0
0.9536252122742779,-0.2006730569293383,0.922505657257122,0.5278546806258534,-0.21320455577756287,-1.1936387390299295,-0.30355294813584194,-0.8668489560877995,-1.0656423472409684,-1.0874090481842058,-0.15214090318161064,-0.10329574757077095,-0.09233295477349092,-0.9440819785623199,0.6283783781599586,-0.32020294151796114,-0.2865771357175959,-0.5995601630748386,-0.55157294264077,-0.23272480276462676,0.5062385685073305,-1.9742603408153285,-0.9483247215688795,-0.2671256534510597,0.8009887361048069,-1.0,0.0712470499879101,-1.1079205818757982,0.7799673017919746,-0.7836660878364999,-0.08360707075236852,71.71984435797665,0
0.8821087547178934,0.12090942844945281,0.9129256505730167,0.6272446682876067,-0.07949673831753638,-0.9950481125356047,-0.2631816139823238,-0.718589902216293,-0.9167426397875429,-0.9316938672392049,-0.20015971178585978,-0.10046688801881828,-0.090960485323737,-0.756696750163339,-0.9913959928821482,-0.4067623717112096,-0.30897842394072156,-0.4248344711046041,-0.31377127708710445,-1.0472755216222502,0.7289467555376639,-1.645472625012734,-0.7581165096666085,-0.2519419743247662,-1.0115343467380704,-1.0,0.0712470499879101,-0.9454204603759526,-1.0057600247142027,-0.49345370687796813,-0.10679442650434375,72.76824583866838,0
0.36543955623932933,-0.42086736802505276,0.5248463463473811,0.14834604245739103,-0.3118470082746011,-1.213393677403685,-0.8514307696088066,-0.9193378354637644,-1.158507817618257,-1.1848561752461824,-0.2743503615432006,-0.10551590496193416,-0.09312039684624053,-0.824801908111726,0.2234347853994319,-0.5264127656506996,-0.5203888993302167,-0.6441349303060565,-0.6522230258280801,-0.76738715076373,-0.5417065943369169,-0.6300345968420155,-0.8270218583005828,-0.2849365096469319,0.3478579653940876,-1.0,0.0712470499879101,-1.2099595345065672,0.33353547016543034,-1.148048946535839,-0.13812097351174782,70.21943573667711,0
0.8179859067208934,0.14690105036193052,0.7294097604496157,0.4673962549514228,-0.10584643453249866,-0.6994691551881831,0.15762950948456747,-0.047026782450868686,-0.5887336597154319,-0.590940969080934,-0.061882499271005566,-0.0993320852675689,-0.09157439370746949,-0.9120608731779369,-0.9913959928821482,-0.1314950673571268,0.017330942704773335,-0.089419036000035,-0.13261607251524057,-1.065808617674556,0.8576186098302643,-0.6527482357619091,-0.9164220132348081,-0.2363051213585582,-1.0115343467380704,-1.0,0.0712470499879101,-0.5921662804593535,-1.0057600247142027,-0.40440670366729176,-0.06607020654811559,69.37300743889479,0
0.6927857774261887,-0.655005261196346,0.9055892885770104,0.1812155965228123,-0.6317931273155083,-1.2123594027662308,-0.6791007592303117,-0.8635439110354022,-1.141442200533979,-1.1669294087975532,-0.2969660755696829,-0.10407530870559248,-0.0928060701950194,-0.4865740548662838,-0.9913959928821482,-0.47888195188464816,-0.4695443770544568,-0.5994873963170891,-0.5721908872954693,-0.8230087811351864,0.5255006275326862,-0.8536408842935388,-0.48503089105665187,-0.2703698443915021,-1.0115343467380704,-1.0,0.0712470499879101,-1.191167972043863,-1.0057600247142027,-0.8910064149761461,-0.12485858850735854,73.08641975308642,0
0.6649408521379834,-0.5983827468930808,0.8376389065945828,0.12986365385994922,-0.6317255639918802,-1.177747214754029,-0.932873992914933,-0.9610820203607543,-1.1384422548892152,-1.163778977585757,-0.2841303888042561,-0.10520275203974261,-0.09311267006976841,-0.7411524993983697,0.2234347853994319,-0.5256322961805797,-0.5207678886011808,-0.6392194785257875,-0.6817099378270535,-0.784892244236321,0.6952811344659374,0.06558469717932054,-0.7394000580642931,-0.28474895108519865,0.3478579653940876,-1.0,0.0712470499879101,-1.1878664984099108,0.33353547016543034,-1.0834677021271055,-0.13851371163617002,71.34967741935483,0
0.8657166879679361,-0.1887255486133461,0.8759945467387518,0.45866696354388464,-0.25583701298689926,-0.8395347187181064,0.06120402473427471,-0.21959598071938086,-0.719386604327131,-0.7262995381866747,-0.23929757079539987,-0.10233788180141376,-0.09201638645975513,-0.7322861335241534,0.2234347853994319,-0.16166086847667094,-0.20250923873904386,-0.2677056504401394,0.043367723297712026,-0.7482638931780062,0.38186556946765243,-1.2394055405302606,-0.731057160108538,-0.23214903151987012,0.3478579653940876,-1.0,0.0712470499879101,-0.7321076656816526,0.33353547016543034,-0.6711971762258551,-0.07521997494894282,70.1095461658842,0
0.7521449624742169,-0.49026554880430984,1.0144594760614343,0.2802283925805362,-0.6109160603144228,-0.3991745234491117,-0.11702909290354416,-0.03375231261597009,-0.45752999560812524,-0.45549935729516106,-0.27270032311837994,-0.08792370858411332,-0.08962450355181989,0.537523591094307,0.2234347853994319,-0.25362594115719694,-0.300046633869544,-0.2748068479133082,-0.19559910450689486,-0.49038622842010227,0.911704495899345,-0.4690282141489285,0.5502093048879974,-0.12889037450394486,0.3478579653940876,-1.0,0.0712470499879101,-0.452640223798491,0.33353547016543034,0.14508664074162086,-0.12685706570462635,70.01823391508205,0
0.8368330771076239,-0.31891839619105483,0.9097204438757324,0.34561725136478,-0.42957609969657995,-0.6495286278809994,-0.45283543110653507,-0.4952005635153484,-0.7101876906843096,-0.71675335065908,-0.1380718717079978,-0.09902577446735679,-0.09027412875037882,-0.8231122651319787,-0.9913959928821482,-0.39400189155326587,-0.41154319070537465,-0.3022876127114434,-0.38645582442510307,1.2582217073287822,0.756531494938969,0.3283192022999173,-0.8268499392688066,-0.2710350130489116,-1.0115343467380704,-1.0,0.0712470499879101,-0.7222217868297162,-1.0057600247142027,-0.3822168985172377,-0.12553269134883543,71.45135566188198,0
1.0809613988711944,-0.1508217001527864,1.1026738870522481,0.5913306391325194,-0.30451638766095135,-1.3992341332743452,-0.204070757857001,-0.47965591153410553,-1.1871577450117816,-1.2149713072905273,-0.2435632609545326,-0.10273289919570408,-0.09284518814261922,-0.7402097393480916,0.2234347853994319,-0.35304727048124646,-0.3109218818958337,-0.26528273952227555,-0.32953258556091086,-0.6897392233315393,0.7935758998432798,-0.25440470077839433,-0.7430731752005593,-0.2507676023929401,0.3478579653940876,-1.0,0.0712470499879101,-1.2415478462179979,0.33353547016543034,-0.7153817795723728,-0.09425969791530206,69.67340590979782,0
0.9060810598524845,-0.37761909565035734,1.0137115944987347,0.43805613660941967,-0.4123136705095983,-1.3364225074658336,0.1650922972085908,-0.07255566185000199,-1.0357966181359932,-1.0561450097746412,-0.16619587783201256,-0.08793333863078387,-0.09018510968847814,-0.3971771956044939,-0.9913959928821482,-0.029995880464001513,-0.06130051020961566,0.047218040185711796,0.04994968884863373,-0.2241909021663216,0.766185485436945,-0.7650142327259071,-0.40361584538875556,-0.14426522454392593,-1.0115343467380704,-1.0,0.0712470499879101,-1.0752398725784196,-1.0057600247142027,0.14476673135635465,-0.1120368712633149,71.01977909067557,0
0.7500093553573219,0.5906701203630926,0.6189725830242973,0.6188656262266674,0.18883100147149603,-1.4116820887606039,-0.007511509630975991,-0.6854776457607888,-1.1431837363140613,-1.1687584275351064,0.16107200409160763,-0.09314233313291954,-0.09254802401129221,-0.9282449035246513,-0.9913959928821482,-0.11950923136391924,-0.20266480881081966,-0.15159754854698806,0.02173258192278367,0.5716529804767,0.5687220737647843,-1.6996303897974003,-0.9348267297078655,-0.25848025928117796,-1.0115343467380704,-1.0,0.0712470499879101,-1.1930848085120167,-1.0057600247142027,-0.054495737287855096,-0.11406551980142954,71.75707241110823,0
0.8610947883754674,0.045714384024154175,0.6103541383493771,0.4298387480930644,-0.040005975656907035,-1.1321682633873018,-0.4453640025298484,-0.6542668781851918,-1.0503847382964548,-1.0714230947109127,0.004404299049537649,-0.09606094381527579,-0.09212580028208688,-0.8924925162455948,0.2234347853994319,-0.3436736148797396,-0.42687477994866224,-0.38999265845187087,-0.3985009060939196,1.5322489603804408,0.3816234802639187,-0.31824809454820324,-0.8960022680160187,-0.2758792545332395,0.3478579653940876,-1.0,0.0712470499879101,-1.0912068311353782,0.33353547016543034,-0.19782636663933878,-0.13071116555996484,71.12992855252712,0
0.8872820953095589,-0.014006640981087651,0.9067289176249337,0.5063817014536068,-0.22516326405973805,-1.0326007548070097,0.3532676429672078,0.1349958805907427,-0.7535666916756943,-0.7617912613569828,-0.2368683709520598,-0.09728065787463869,-0.0838491024884975,-0.45678108256534944,0.2234347853994319,0.25386976188058225,-0.03689169207090188,-0.017855363988684682,-0.04958167253775973,0.9301208276393618,0.939693209361111,-0.2987217502508776,-0.4460421251426539,-0.14893703156563165,0.3478579653940876,-1.0,0.0712470499879101,-0.7688843353876562,0.33353547016543034,-0.2678298966929859,-0.08562884340550289,71.51577858251423,0
0.8300026043619857,-0.07187055711085184,0.847859954618145,0.4635435121388365,-0.22303501936545264,-1.4590733757204921,-0.08644107891116727,-0.35497322681813015,-1.1987359686953225,-1.227148605793705,-0.1623419199743239,-0.09465107944785461,-0.09194292586042636,-0.6325952749162247,-0.9913959928821482,-0.08782152328324576,-0.2739913418273965,-0.2164575758162512,-0.3192551039383914,-0.21571769502628432,0.9827864102453823,-0.5129745768682245,-0.6328660586512562,-0.23351275917209263,-1.0115343467380704,-1.0,0.0712470499879101,-1.2543281103458477,-1.0057600247142027,-0.124871392896631,-0.11771978880836251,71.85031185031185,0
0.40995788708985226,0.6388080058890724,0.34229201823316546,0.48690244933123017,0.28581815253964565,-1.312418538664506,-0.0358014243338541,-0.32120545430404585,-1.0818073038951435,-1.1043531632924193,-0.06659668308857379,-0.08558710098801098,-0.09155553015464162,-0.5979524367159074,-0.9913959928821482,-0.3152538877642796,-0.19528280921056623,-0.06720325414239497,0.05253944452235851,0.27214649290443427,0.5063204150690468,-0.9018277838585433,-0.6017925917076256,-0.2125125901068234,-1.0115343467380704,-1.0,0.0712470499879101,-1.1256439457778842,-1.0057600247142027,0.2186302401159387,-0.12244132460791024,71.09230362338006,0
0.6980332545359541,-0.012498902216587783,0.5718204311664702,0.39195793414553787,-0.050951234084660596,-1.1070501967023065,1.0434887463140594,-0.6025466851584652,-0.47519892944369907,-0.47371073181594325,-0.014526651917040652,-0.08850387741548268,-0.09038649900926254,-0.733990041948242,-0.9913959928821482,-0.0969872160136861,0.7841568479573937,0.23554439680034092,1.6146821143068055,0.7974691125966469,0.5824702110042252,-2.4456426491290717,-0.7387405996236142,-0.07007952052483073,-1.0115343467380704,-1.0,0.0712470499879101,-0.4713717466537021,-1.0057600247142027,0.12554391583787103,-0.057280205904150644,71.36809499225606,0
-0.10019474386130789,-0.4915321994507574,0.16807122753188902,-0.24961804205108248,-0.4724112468768007,-1.5029969882759926,-0.8018745163988558,-0.8970840104010377,-1.3576417083950354,-1.394682629746026,-0.2966077662613793,-0.10290965544305777,-0.09291221021243977,-0.3427053597378532,-0.5864524001216215,-0.5222938205193488,-0.5064889403566908,-0.5453088652579958,-0.3876604222575142,-0.8721672863606476,-1.0820512257695105,-1.0398458620901299,-0.3375105673180189,-0.27896927308205466,-0.5584035760273511,-1.0,0.0712470499879101,-1.4305844925947209,-0.559328193087658,-0.7361072852112528,-0.13630644478949197,68.64353312302839,0
0.548902696344899,0.89368203380249,0.23936926984259127,0.4225643385867826,0.3027765467703008,-1.2013728198951363,-0.03913654032030724,-0.5045586359983418,-1.004752484486206,-1.0236534570054427,0.10681443722531932,-0.07998447791084429,-0.08671564706735939,-0.7199529854559579,-0.9913959928821482,-0.4320222996578942,-0.11518025004295031,-0.11388455923222562,0.09020984802098461,0.32406357629981725,0.8458885394944311,-1.362786668049511,-0.7201417771149926,-0.21562129404224514,-1.0115343467380704,-1.0,0.0712470499879101,-1.041305042534046,-1.0057600247142027,0.3684111524834983,-0.12245819236262015,70.2439024390244,0
0.6232557625835777,0.34169008751980656,0.33826770315768623,0.46680352528794794,0.26443436061134934,-1.2490274296515183,-0.3733553673485099,-0.49205081059477945,-1.1190254583863124,-1.1433946445791234,0.26057831437641626,-0.04772609001956806,-0.09008441148721862,-0.4950519236822296,-0.5864524001216215,-0.4184368960584096,-0.35381669373042574,-0.04484080605993846,-0.10179794513910541,-0.48173304840777753,0.5336482929816728,-0.23645475908577798,-0.4964227337606724,-0.24011272579619067,-0.5584035760273511,-1.0,0.0712470499879101,-1.166511627742637,-0.559328193087658,0.8881197994055938,-0.1372887135303166,74.83803002370293,0
0.579399195146173,0.5787058711082513,0.09160924109778426,0.34084847179955086,0.3404768813547853,-1.174368179544193,0.40460461002893644,-0.3780376054683754,-0.8331617763360394,-0.8445711789272936,0.21097250583004698,-0.07487536740549214,-0.0908413118677461,-0.7369717528518951,-0.1815088073610948,0.037904069966084884,0.15368539312491722,0.3499270512176958,0.5982200654738467,0.41181248887524374,0.20325723562330567,-1.0805202163619625,-0.7364398845928147,-0.17462606903929379,-0.10527280531663176,-1.0,0.0712470499879101,-0.8547963414245511,-0.11289636146111386,0.4814206653523431,-0.11500785628766128,70.05473025801408,0
