ppg_mean,ppg_std,ppg_min,ppg_max,ppg_range,imu_mean,imu_std,imu_p95,imu_energy,acc_rms,ppg_bp_low,ppg_bp_hr,ppg_bp_high,ppg_bp_hr_norm,ppg_f_dom,imu_bp_low,imu_bp_high,imu_jerk_mean,imu_jerk_std,coherence_ppg_imu,ppg_entropy,imu_entropy,sqi,fusion_ppg_imu,hr_candidate,phase_id,sqi_flag,motion_weight,hr_cand_weighted,ppg_hr_smooth,artifact_ratio,hr_true,phase
-0.0583951451695273,-0.5311713613458604,0.1990905056800516,-0.3256490925204421,-0.5971669239561028,0.913505000938696,-0.7905562908044484,-0.6800300158099443,0.3734912875495236,0.3913472542085985,-0.2624347373056109,-0.100136288429165,-0.0914757987814953,-0.4583843963563492,0.6283783781599586,-0.5165688563249681,-0.5197662570568966,-0.771143955596618,-0.7721625562299003,0.9330133839920348,0.5267287382843803,-0.7606397217809874,-0.4502664006903687,-0.2836734483863493,0.8009887361048069,1.0,0.0712470499879101,0.4085974976355458,0.7799673017919746,-0.4663052713016519,-0.139807868675731,71.85031185031185,2.0
-0.3260581109056539,-0.5181496463359732,-0.075524481461719,-0.3696727411621621,-0.3918757651120955,0.4868607263321691,-0.672239709428899,-0.6505182143554212,0.0743476693860517,0.0886604017840985,-0.2570104652915432,-0.0837848171399442,-0.0916554658363674,0.511380443725771,0.2234347853994319,-0.4596350798322162,-0.4899317350519359,-0.6959440977853085,-0.7112443378410466,-0.2308737840761028,-0.2936818494483252,-0.7871075363628846,0.5080850333533922,-0.2602819137068179,0.3478579653940876,1.0,0.0712470499879101,0.1029479181164834,0.3335354701654303,0.2704450122834203,-0.1390196062872581,72.73875295974743,2.0
-2.1994973501029955,-0.6080529762905053,-1.9608626742121016,-1.8159331200406983,-0.4169079765163096,-0.697560243374256,1.8206527394663132,1.6764818825852972,0.4194007548150654,0.4166139922250046,-0.2557382448609349,-0.0944998138244154,-0.09118191550319761,-0.1393346258584542,-0.866382772331837,-0.1742237448097186,1.559464114213936,0.8245038182804512,0.3245068296004642,0.5664019932884456,-0.9068758421637334,1.8153317406503904,-0.1466841295155182,0.7145455194342052,-1.0115343467380704,-1.0136169186217137,0.0712470499879101,0.4130629161044547,-0.8936284198001392,-0.1174830773841576,0.0483666665873725,104.21711899791232,0.0
0.6328508143606997,-0.4333168239447405,0.7904155279212606,0.221709809441114,-0.4717693953023336,-0.1508666632667865,0.7254051735676192,0.9294150628248218,0.036899644665512,0.0506004635205127,-0.3208509783660436,-0.1050393127352483,-0.0921982156161128,-0.095670178505623,-0.9913959928821482,0.4172294222590001,0.2867851968001007,1.296992627510248,0.7832638707287982,-0.4733236534255848,0.4376443740003941,0.8035296050513974,-0.100059590024061,0.062872165524325,-1.0115343467380704,-1.0,0.0712470499879101,0.064345224200655,-1.005760024714203,-1.052017738751836,0.1450444567759273,84.98198661863098,0.0
0.1008369232809136,-0.5250987567207532,0.2639069077806901,-0.1892135008915132,-0.487579213031311,-1.2012049399299412,0.4877049705222114,-0.6458785295836869,-0.817712418659997,-0.8284893349519219,-0.2642092166740958,-0.0890872926415304,-0.0882962157605413,0.309175576268799,0.2234347853994319,-0.438445023812997,-0.0357441483979746,-0.0824657560168878,1.25637839503231,-0.8030736891935198,0.2533439516281002,-2.490517140113937,0.3147326060232825,0.0070274823910417,0.3478579653940876,-1.0,0.0712470499879101,-0.8380911897300657,0.3335354701654303,0.1053175895637991,-0.1086570379225399,70.20822752666328,0.0
0.0128027342450264,-0.3867384156720886,0.0673921238294138,-0.2482439869221181,-0.3751876241759527,1.2719771189941858,-0.1541697959855363,0.4769493378096554,0.8281504755563299,0.8533441983270557,-0.2054219058580068,-0.0922461514944465,-0.0881019948678427,-0.3839947285402657,1.0493210903124515,-0.0973682666293077,-0.3817800234135508,-0.0241045031029417,-0.1962890187447896,-0.4597201225815305,0.6144573221449398,0.942650752747397,-0.3746197623100572,-0.1895924046391199,1.2541195068155262,0.9753755174190453,0.0712470499879101,0.956910027192974,1.2263260174530048,-0.0158552974333238,-0.1295546144370794,86.05042016806723,2.0
-1.177870965364029,-0.5785791730160729,-0.9300682003654656,-1.2873529715083212,-0.7319219729323649,-0.9716858355732044,1.132420835938137,1.1994864304767223,-0.327960970916942,-0.3222195252336924,-0.3323537412710565,-0.1078462786491225,-0.0929830941042486,-0.5712872606641098,1.438265563681012,-0.4187734890840244,0.9050346761253542,0.3750844363595836,0.0515083878025488,-1.2447653755034722,0.6805351071338653,1.5697265398188331,-0.565208267306632,0.046104468159513,1.7072502775262457,-1.0,0.0712470499879101,-0.3158270634809633,1.6728309650450623,-2.0513547232227465,1.999078017642364,84.26332288401254,0.0
-0.1712554247984783,-0.4673298583787833,0.0035728971457083,-0.4362740015307862,-0.5504131040054518,0.9666313659464928,-0.3976186296134115,-0.1316824248817512,0.45448103596298306,0.4763298181199001,-0.2019448240192089,-0.0985656179431846,-0.08706892540482486,-0.6685373685420988,1.0316619910846234,-0.431619813468496,-0.4266345514799818,-0.1064339924252201,-0.0982078372520353,0.910214632892221,0.9675836546523812,0.3216265158256782,-0.663873566498482,-0.25320472380285525,1.2541195068155262,1.003784074356025,0.0712470499879101,0.4946683998865452,1.2356261877219707,-0.3501678347658868,-0.1281503591221297,85.10817941952507,2.0
0.4608776820857833,0.3921876567900789,0.2217406330075275,0.2701250460440337,0.128361826824339,1.147834684741806,1.1524147288021502,1.52738766660385,1.2226122496635292,1.2520979075303924,0.0360954352906334,-0.0213383784774184,-0.06178203265793104,0.2022955570721287,2.653533304869566,-0.1584675162028276,0.9311289301052094,0.5576869572524923,0.1809240650405136,0.2573464775803518,1.0644261665987722,1.829157530308878,0.2076970616293658,0.4696039679410672,-0.3318381906719914,0.9874293463218469,0.0712470499879101,1.244475260268263,-0.33914236629574745,1.1363385274429807,-0.1194385914993859,109.59830866807611,2.0
0.1974821310193654,-0.1517229866452381,0.326337211562239,0.2363933397408309,-0.0131495545147339,-1.952854035552121,-0.760946982264967,-0.9113471382181052,-1.6669870117863652,-1.7230271519567268,-0.0987280966515434,-0.0909366206237215,-0.0928644959398237,-0.6638768815698187,-0.9913959928821482,-0.5185675751669258,-0.4963156954418631,-0.5069095775181472,-0.5640558698330849,0.0061283833432533,0.1135783054343088,-0.0212045882515923,-0.6673614954222954,-0.2798007429293357,-1.0115343467380704,-1.0,0.0712470499879101,-1.7783531456780266,-1.005760024714203,0.0369816568057905,-0.1387024759027235,68.96988906497623,0.0
0.6980332545359541,-0.0124989022165877,0.5718204311664702,0.3919579341455378,-0.0509512340846605,-1.1070501967023063,1.0434887463140594,-0.6025466851584652,-0.475198929443699,-0.4737107318159432,-0.0145266519170406,-0.0885038774154826,-0.0903864990092625,-0.733990041948242,-0.9913959928821482,-0.0969872160136861,0.7841568479573937,0.2355443968003409,1.6146821143068055,0.7974691125966469,0.5824702110042252,-2.4456426491290717,-0.7387405996236142,-0.0700795205248307,-1.0115343467380704,-1.0,0.0712470499879101,-0.4713717466537021,-1.005760024714203,0.125543915837871,-0.0572802059041506,71.36809499225606,0.0
-0.3405628747524721,-0.5145383599860811,-0.2835780095232188,-0.4418241065615049,-0.284990587132428,0.7070844721055901,4.092057373567574,2.586563810116535,2.4055458886003422,2.4021346072024192,-0.2478487435848957,-0.0682346163253609,-0.09114039113348647,1.0942933871350342,-0.20399093891004486,-0.4452750576815666,7.330021146835076,4.030169891063225,2.6066167286193704,0.1900687941255426,-0.1231269898790405,2.11717880547736,1.140600676132579,4.3223879428640615,-0.1052728053166317,-0.6166917759251856,0.0712470499879101,3.794085431414066,-0.8357571120898333,0.6051370926381291,0.1092967942069875,109.3887240356083,2.0
0.1267501483899662,-0.2072235353516234,-0.2170165504429478,-0.1860343145146938,-0.0274054158002648,1.113346208224361,0.3582667766975925,1.1217867955698484,0.9961950903744639,1.0254701878966017,-0.0436917773132517,-0.0685779406649452,-0.08363806273514247,-0.3042218586978048,1.8333817416482692,1.4369548982220783,-0.0534135634975091,-0.2422001246911669,-0.3321924315101666,1.1825392299595512,-0.0378038241468668,1.2167569257256072,-0.297082639176219,-0.036666935672165286,2.1603810482369648,0.9970793851830261,0.0712470499879101,0.6064233935189299,2.136589326736134,0.5992563977216285,-0.1257324558596536,95.07565337001375,2.0
-1.938272718689784,0.0491528652190685,-1.874963134724882,-1.0595561849319797,0.449997028955949,-0.40887850112905394,2.505171905055999,2.0571115922956906,0.9950629070653031,1.0438432888888904,0.1297552772477795,-0.0752476619428009,-0.09095217965834322,-0.6769145927182075,-0.9788268050002732,-0.2647271542530136,2.9405725659862294,1.7050002884982816,0.9697221230954812,1.9622009029544567,-2.417031317094956,1.7984403063280798,-0.6792194399513787,0.3711787661323895,-1.0115343467380704,-0.9927888920274188,0.0712470499879101,1.1943648746899174,-0.9986197144693726,0.4737824144010173,-0.0073552810815161,98.17547937245789,0.0
0.4802652099091925,0.1891860413801707,0.3778341991652738,0.3982893646417461,0.1409961683427953,-0.0914926600175112,0.1652446395255218,0.3499433157925907,-0.1517205212070089,-0.1416793298171848,-0.0404775895082624,-0.0813484744459094,-0.0885557561552208,-0.5577585305958461,-0.9913959928821482,-0.3219286426932008,-0.1641131649032763,1.0540687062878602,0.9100405768669312,1.282350711917339,0.6685675823465889,-0.4176826423703026,-0.5861773455545533,-0.1995977888444648,-1.0115343467380704,-1.0,0.0712470499879101,-0.1312633017537874,-1.005760024714203,0.3348268126085559,-0.1238413760042319,78.02031779109143,0.0
-1.3319170520190848,-0.4892088136086379,-1.1779731316965336,-1.2226107269024136,-0.4155904917055615,0.1112570800149313,0.0275787102866907,0.2310344102984747,-0.0499100335703716,-0.0377734092430527,-0.2425185763171439,-0.1049548246957934,-0.092585011611376,-0.8848962657851316,-0.9913959928821482,0.1332894165509185,-0.2842417139303614,0.3913630458087341,0.0364647660190491,-0.7720045510556852,-0.0719201598596923,0.8708666021245612,-0.8901997415219634,-0.2609938504789174,-1.0115343467380704,-1.0,0.0712470499879101,-0.0254366586339397,-1.005760024714203,-1.0363050036959165,-0.0574609657435408,81.53288451579492,0.0
-0.9888742643830866,-0.4303679842581729,-0.9333446338782452,-1.0644057912695006,-0.4492708085341735,-0.0990030014688545,0.5620569489040748,0.901031727849876,-0.0018009235337491,0.0112277612463631,-0.2723670665827161,-0.1054316826718464,-0.0933340657285817,-0.8255491280059957,-0.5864524001216215,1.4096862182189398,0.0046871978896696,0.4671345726659031,0.2180644129248689,-0.8272128410555356,0.6388678788428719,1.0324858435338575,-0.8290050888187376,-0.218430226434132,-0.5584035760273511,-1.0,0.0712470499879101,0.0243707654988459,-0.559328193087658,-1.130077443093051,0.0683291846726086,84.10951760104302,0.0
0.7645732285363367,0.6784624213379361,0.907049438294662,0.8889078724543046,0.2541647354198768,-1.876816372072589,-0.503878000984818,-0.7384534505065047,-1.5809267092969224,-1.63138584760442,-0.2631462377552319,-0.1029106174177487,-0.092289876705035,-0.6617984664404922,0.2234347853994319,-0.4467663390376751,-0.4300961533237997,-0.6669296539141405,-0.6511153333313661,3.4301301430189004,-1.44029440792461,-1.3285358411501575,-0.6593899809051617,-0.2669062911385241,0.3478579653940876,-1.0,0.0712470499879101,-1.6809779251381598,0.3335354701654303,-0.7362218010748228,-0.1193225098481725,69.90897269180755,0.0
0.5633706530401551,-0.249519886982285,0.4079275287119987,0.2173182214799143,-0.1144607582950824,1.1394949793627611,0.7675220195897443,1.3493406749043868,1.0716766020163093,1.0783214531612306,-0.0778876197046493,-0.0440078473732435,-0.045725887607545763,0.2566506588797106,2.8861268217175375,-0.2828003618036454,0.4830222780682134,0.4660044701601646,0.2753105358720681,1.6114373896350291,0.4458045100402276,1.6347984256860355,0.285897457948831,0.3910598651936639,-0.1052728053166317,1.007939172230896,0.0712470499879101,1.0087311491948088,-0.21050415780759044,0.9289771989412362,-0.1208266390014419,114.02969523313362,2.0
0.4633351446936228,-0.4832651310631246,0.5260572022107997,0.0530782201825306,-0.4324475409507745,0.9478643089827729,1.316657940563443,1.797549849763039,1.449230208345446,1.4703184881408184,-0.2300812876843562,-0.0543760243889828,-0.08813095538246436,1.3099230832439372,1.1331948020584768,-0.3561804499205002,1.2543425765944178,1.2663643850946515,0.8353917483469342,0.9402552435604916,0.5751354237130212,2.1168027235581595,1.32093658755754,0.9990257467708831,2.1603810482369648,0.9980424759867167,0.0712470499879101,1.199537783037698,1.3431477898011326,0.8084127599793379,-0.0986848562913329,98.06639912440716,2.0
1.7417881834302895,2.0830322322992396,1.383378766918859,2.3367578445212507,1.6177277328823605,1.2401647271746754,-0.0812368942008994,0.1933827103553694,0.7265791347743012,0.7474839650379266,0.1641795775067702,-0.0365360088996215,-0.05857691687964304,-0.2614156565101322,-0.993601884015661,-0.3639714369504934,-0.326056288697047,-0.2851066959851961,-0.3395199090094813,0.2926742656105079,-0.7637834167105455,0.6241803853933987,-0.2692966335502171,-0.1398470205848677,-1.0115343467380704,1.0014710209846955,0.0712470499879101,0.8177551364456485,-1.0184956455964367,1.0044211740170716,-0.1373618451504976,86.26959247648902,2.0
0.3054983896201626,-0.2704570571584475,0.38517056116128,0.0316321832677148,-0.3256974896183633,1.0751852611282116,0.1038224611731,0.5576449468843577,0.6670039772087114,0.6901998170004637,-0.1091516950665317,-0.0749482582976173,-0.08494471253009496,-0.2464592554636227,1.8466891709239395,-0.4539355506146924,-0.1001901753491501,-0.000570337174963,-0.1542546318285356,0.7531193239335684,0.8717306824505914,1.3554948162277787,-0.2403695596532182,-0.07830396942564682,2.1603810482369648,0.9986321326343985,0.0712470499879101,0.7321141743900907,2.1071541298759837,0.4799318243254492,-0.1246455585196631,97.07865168539324,2.0
0.1705033892932811,0.3809734728080255,0.1545025191800521,0.4232109527651188,0.3840890067567292,0.872674794019435,0.9272067140590232,1.3955259539372102,0.8826495809633242,0.9011590272687708,0.0510875335448675,-0.0608030047292597,-0.0797039173485867,-0.3768976378981903,2.2481527492020654,-0.3093017305801891,0.7805587678568171,0.2603502989223588,0.0090872718376428,0.0210486844973647,-0.3698658794982061,1.6506124433619993,-0.3643496237114398,0.1223205918191402,-0.5584035760273511,1.0,0.0712470499879101,0.9180414133893684,-0.559328193087658,0.72150676616487,-0.1057624404911306,90.57340382269216,2.0
0.0876679763195054,0.2732611492089099,-0.1873149683814465,0.0028578523317558,0.1812639092251479,0.11571136306204899,0.2102412874083786,0.46348150164768526,0.015155541388720401,0.03605445560670453,0.0216966975041375,-0.0313237288438042,-0.07894285031796965,0.116870816006905,-0.9659925870656492,0.8726309285089512,-0.2054489761187472,-0.2915689547096232,-0.4513933054562333,-0.6359413297126789,0.9113331314343648,1.188944119682576,0.0900662316681953,-0.12683523260405274,-1.0115343467380704,0.9993743188305637,0.0712470499879101,-0.0884478384429642,-0.997990006858238,1.052558271452122,-0.1355950036833754,96.60377358490568,2.0
-0.2772742111452229,-0.622797788644085,-0.0806171987696263,-0.5697459448423412,-0.6379076081038522,0.4751613555474329,-0.4613197349223232,-0.5117675949955167,0.096840414267861,0.111502546306374,-0.3105721974241027,-0.0961588119490901,-0.0900790624862779,0.9634218062686662,0.6283783781599586,-0.3622037003486403,-0.375298141533753,-0.623753000003734,-0.6141058239743495,1.4248767949071752,0.7877772268659614,-1.417276930810111,0.9868359168891584,-0.1540032174473282,0.8009887361048069,1.0,0.0712470499879101,0.1260974563881574,0.7799673017919746,-0.2031887144312566,-0.1253336265625698,75.84199584199584,2.0
0.7521449624742169,-0.4902655488043098,1.0144594760614345,0.2802283925805362,-0.6109160603144228,-0.3991745234491117,-0.1170290929035441,-0.03375231261597,-0.4575299956081252,-0.455499357295161,-0.2727003231183799,-0.0879237085841133,-0.0896245035518198,0.537523591094307,0.2234347853994319,-0.2536259411571969,-0.300046633869544,-0.2748068479133082,-0.1955991045068948,-0.4903862284201022,0.911704495899345,-0.4690282141489285,0.5502093048879974,-0.1288903745039448,0.3478579653940876,-1.0,0.0712470499879101,-0.452640223798491,0.3335354701654303,0.1450866407416208,-0.1268570657046263,70.01823391508205,0.0
0.0782096368196226,0.2711295497083372,-0.10939283222969,0.1507169611112902,0.2927433932115267,-1.3752028296452077,0.0692712446942072,-0.4872517680285304,-1.0942864482921233,-1.1174390929964435,0.1640069890162286,-0.0607686490917711,-0.0909941823596706,-0.5332566225268704,-0.9913959928821482,-0.5013739850692792,-0.4407463903891474,0.05421166119241,0.2600722627195508,-1.0053649628196664,0.5984665974872897,-0.8978494719333534,-0.5401384030050675,-0.2643639990007956,-1.0115343467380704,-1.0,0.0712470499879101,-1.139337207255633,-1.005760024714203,0.7220016560289063,-0.1386278431776948,67.75298391281785,0.0
0.0582000069095726,-0.2065182457867494,0.0751202333106438,-0.0884764003582262,-0.1821929902322611,0.8252636587352145,1.5573466623586756,1.4082118473451921,0.9415803734428445,0.9489739360182724,-0.0694811872316612,-0.0679144528769316,-0.06599578247221004,-0.2254844867829984,-1.0130736753423952,0.2269391185686636,1.1128779230742611,0.7799757066958852,0.5923840059482361,1.9440033367612848,0.6288242964396628,0.9257743492470606,-0.2281440887913323,0.1404503583573446,-1.0115343467380704,0.9935570723654283,0.0712470499879101,1.01893131607766,-1.012457736629233,0.6105762955867198,-0.0891258640623916,103.7137069547603,2.0
0.1156303819681836,0.2243622530984081,-0.0977472478962236,-0.0674883818197318,0.0080991107663061,-1.6096640720444757,0.1249069424419656,-0.6097673548956957,-1.2403396971819067,-1.270938043525483,-0.1049982462689499,-0.0954229063195285,-0.0921537836160202,-0.7689629169206524,-0.9913959928821482,0.300766682201706,-0.0614262543054547,-0.1707689092885499,0.2028653001979243,1.6310627560286142,0.766421449248202,-1.8091445233639745,-0.7712281180778475,-0.215906397327862,-1.0115343467380704,-1.0,0.0712470499879101,-1.3003204716366663,-1.005760024714203,-0.1638525950478647,-0.0957457659386319,67.47286821705427,0.0
0.5545131938910439,-0.7048590398594491,0.7768824329771712,0.0376941911896162,-0.6896611140029831,1.2449342532393846,0.6746780169885109,0.9988170254108056,1.0283811997368624,1.045861029558646,-0.2982152666411467,-0.0972404342193365,-0.0910503197348242,0.3567655429346246,1.8432091564415387,-0.3961290204727539,0.3977020821620765,0.5327079055698624,0.2780514188958497,0.287093285749218,0.6277875715946303,1.6561325120698374,0.3757760384153449,0.2833244016163645,2.1603810482369648,1.0,0.0712470499879101,1.0614338572662054,2.1192627966716073,-0.2654044802212027,-0.0369742213987658,92.93978748524204,2.0
-0.1684445397052312,-0.7493324941643165,0.1186398175782153,-0.5089911543361731,-0.7507383585627931,0.0183291589178415,-0.7233500022849721,-0.6459236934514001,-0.2704536703110173,-0.2632149679845715,-0.3280928649123689,-0.1003346382554708,-0.0899566887664412,1.688770719849774,1.0333219709204853,-0.3413267217111315,-0.4999884759791771,-0.7042885002160433,-0.7158085769050389,-1.034298237910294,0.3210425057225091,0.3076925343494852,1.755592264447805,-0.2536854892428203,1.2541195068155262,1.0,0.0712470499879101,-0.2554113090505906,1.2263991334185185,-0.4824650668087962,-0.136736215123199,82.92030848329048,2.0
-2.018815445885659,-0.68683035705991,-1.7415196958946118,-1.862462398623471,-0.683310161581941,2.460149273921885,2.027671128555039,2.5511057796667136,3.3980186736401845,3.3106476742198043,-0.2991221946908053,-0.103317694006709,-0.08895531949010348,-0.3558837959784877,-0.5069523912855235,1.226397249617535,2.3369682973855403,0.8703271862311257,0.3334738524687773,0.2420796749000823,-0.0599449951607883,1.2125945845287234,-0.3676951853923759,1.2391525914224992,-1.0115343467380704,-1.001268847860931,0.0712470499879101,3.3244304542376124,-0.48356313849304056,-0.7864704334354511,0.5439142553158315,98.63858207038274,0.0
-1.5454931510427736,1.3743664530533282,-1.659395177628638,-0.6903125468446036,0.7084943051570917,-0.5911214981926812,1.810666349534524,1.6126347991185184,0.3883376642871771,0.42941897275093904,-0.1817831868788481,-0.0883097226406007,-0.09000395733859307,-0.3441552024357022,-0.9221892714372794,-0.2386463598029632,1.8787719698794532,1.144186628218401,0.6423698630066749,1.017586191542071,-0.7949135382307438,1.586868013727095,-0.3398102530417546,0.5616377420128763,-0.1052728053166317,-0.9871367831194762,0.0712470499879101,0.6065120201826829,-0.8823702331496975,0.1321457145986588,0.0110949149552852,99.35018050541515,0.0
-0.7523421535792181,0.9071512301118192,-0.9249398696498108,-0.0798548779804108,0.7772399869486919,-0.4805640342154226,0.3426433430118718,0.4052763314055803,-0.3660099297951624,-0.3613096013209719,0.4283107283486184,-0.0488519311895679,-0.0858698895463366,-0.6358048576047309,-0.9913959928821482,-0.0068576945838832,0.1081652804409625,0.4432594688546433,0.3957443112718278,0.9846320788837672,0.1201254584497121,-0.1734142287119175,-0.6392808333247938,-0.1554853826766623,-1.0115343467380704,-1.0,0.0712470499879101,-0.3559036880708268,-1.005760024714203,0.875256112495744,-0.1272703946770174,76.84044233807268,0.0
-0.1227336139262287,-0.6520120858885183,0.085341281334206,-0.4565884636335138,-0.6534471725383171,0.8927697915616892,-0.3387521780961207,-0.1914091381550749,0.4249458793704865,0.443172794776913,-0.2895985624121704,-0.1007352187952309,-0.090440736490833,-0.2094795383437139,0.6283783781599586,-0.4017600756921777,-0.3260798050761039,-0.4018399716136828,-0.451276559666913,-0.4098982896415185,0.7244557021313947,0.0315678309083268,-0.1928818002861301,-0.2090377333375693,0.8009887361048069,1.0,0.0712470499879101,0.4606907896726632,0.7799673017919746,-0.516301685020519,-0.1084094418118366,73.51351351351352,2.0
-0.2982700980452943,-0.697024189167446,-0.0361716659006171,-0.6110484254835632,-0.7318544096087368,0.0808125461815909,-1.0227972477656306,-0.8605464986115651,-0.245324215190876,-0.2374599801106784,-0.2798201159643139,-0.0994847793966698,-0.0902619049750278,-0.2298628142470918,0.6283783781599586,-0.5271908892578762,-0.5256492669874337,-0.8468364980811586,-0.8481637516165514,-0.9646092260731896,0.7701958927439426,1.132870604798193,-0.2095062681923918,-0.2851280332586999,0.8009887361048069,1.0,0.0712470499879101,-0.2290696808821422,0.7799673017919746,-0.4157404197855002,-0.1407112705054669,75.64541213063764,2.0
2.3545344107580033,2.033256178795586,2.111067527425642,2.716589789778881,1.4037209052903268,0.0468508338506764,-0.8424239163989081,-0.7087267921219724,-0.2606400675372918,-0.2531550048383618,0.2705810059250073,0.137103671781298,0.0344506407046918,0.9588526262527636,-0.9913959928821482,-0.4881640532565623,-0.5135510500294419,-0.7650307766264492,-0.7874514729099412,1.0097510553297029,-0.4324203339016447,0.0639551466463723,0.947293316545258,-0.2737247417656059,-1.0115343467380704,1.0,0.0712470499879101,-0.245120083519857,-1.005760024714203,1.85042383473189,-0.1408856600829318,80.12519561815337,2.0
0.6338127433361598,0.1571303536881218,0.7287331057024112,0.9287015866794088,0.4732050306222042,-0.1190262658246073,-0.7220450771799399,-0.7217649086488525,-0.3691286046847802,-0.364515398371206,0.2300234120823397,-0.0695042562140437,-0.0815432603350668,-0.6922542559460511,-0.5864524001216215,-0.4534207169232528,-0.4770981880883667,-0.766799460712598,-0.7775417264175771,0.060556886275056,-1.128416603504932,-0.7017097584576667,-0.692522747182928,-0.2766748861970889,-0.5584035760273511,1.0,0.0712470499879101,-0.3591922217781026,-0.559328193087658,0.5831352767284251,-0.1393038344952,91.2396694214876,2.0
0.1057495165366447,0.1917413581423647,0.0766872232515383,0.1046457009048391,0.0584675685310609,-1.4215348672910584,0.3298625121122973,0.1735871741794372,-1.0359776952507418,-1.0563346127357407,-0.1259732661426392,-0.0745519874321446,-0.0880111249808875,-0.1731511418500963,-0.9913959928821482,-0.4346837436269689,-0.255490701201251,0.1300779248653768,0.0139626315892989,-0.4849416043185196,0.6634457033011679,0.4661309417651025,-0.1746081206630375,-0.1780459691092562,-1.0115343467380704,-1.0,0.0712470499879101,-1.0754379844641018,-1.005760024714203,0.4879874487624862,-0.1306958552838991,87.45109489051094,0.0
0.4030998179842479,-0.30249474146137,0.3350981098681495,0.0936802021305551,-0.2004013059500363,-0.11260067646877439,0.0808546524410948,0.454346543768295,-0.16753063141227717,-0.17200225892207846,-0.1629809753651951,-0.1010369856385426,-0.07944450137072805,-0.8532296283227256,2.7012851005719725,0.9341145949963297,-0.3415495722509633,-0.5688437418283759,-0.6362695646216185,-0.3467068901167504,0.0391547795917285,0.6913711742088223,-0.8555175988330739,-0.15249477735431266,-0.3318381906719914,1.000354562498148,0.0712470499879101,-0.3064690194049875,-0.31163334234503276,-0.5429338158965611,-0.1097284657889638,112.43921568627452,2.0
0.0279797418191581,0.0632271676332252,0.0186373686229446,0.020073954829956,0.0074910408536531,0.0669643719121147,-0.1685075634319976,-0.0758000238651821,-0.1362465567448069,-0.1258686472349682,-0.0019223204778909,-0.0681294262046251,-0.0271565380600422,-0.4022231227258198,3.058039934723119,0.5678306474390321,-0.3272331307483433,-0.4268042520638521,-0.5233680744480605,0.2947899958464674,0.7528186200274094,0.4778471525389221,-0.3993938127550077,-0.2254317894848547,-0.1052728053166317,1.0,0.0712470499879101,-0.115141806560639,-0.1128963614611138,0.606928881292309,-0.1345991417662258,118.62835959221502,2.0
-0.0959896168321354,-0.8373489639830398,0.1881571895015374,-0.5130055506933434,-0.821713630034121,0.40590532276302055,-0.8301579061026848,-0.6821730711217854,-0.0023664817280597897,0.032792957780482766,-0.3253780700337487,-0.1042188115434215,-0.09555896422433066,0.3828560857137324,1.4422094768463325,-0.518664922277345,-0.5096997574030047,-0.790033819747901,-0.7990318322869612,0.1815259867438544,0.5285215041679002,-0.2927070746858156,0.4146856270127053,-0.27729236547070146,1.7072502775262457,1.0040644961350602,0.0712470499879101,0.0894867833943842,1.6728214444868381,-0.912722832733525,-0.1358719402894982,89.44099378881988,2.0
0.6654603749981642,6.359197856771039,0.0096271764628009,2.722463201898768,3.4044398262276863,0.28891492902707633,-0.6546139508597217,-0.5644622597150825,-0.05480280767788544,-0.04431188516418301,4.10329845218036,-0.0240654034830716,-0.07674081084585904,-1.0056677367508784,-0.9893737269858465,-0.4820456138073311,-0.5081629249234279,-0.6229352019245052,-0.6215263024270773,-0.8661968348365338,-3.927528180157041,-0.5677303259404703,-1.0123166980979654,-0.2700212009659402,-1.0115343467380704,0.9893996062964019,0.0712470499879101,-0.0855403078285102,-1.0300938385952885,1.1144484178573886,-0.1406651387164249,84.76386036960986,2.0
-0.3405628747524721,-0.5145383599860811,-0.2835780095232188,-0.4418241065615049,-0.284990587132428,1.2063946821361218,4.092057373567574,2.8992013841226596,2.9104528254156796,2.8765096539344257,-0.2478487435848957,-0.0682346163253609,-0.07008769644091425,1.0942933871350342,0.8686015895562559,-0.4452750576815666,7.330021146835076,4.030169891063225,2.6066167286193704,0.1900687941255426,-0.1231269898790405,1.9828855399662524,1.140600676132579,4.1941881764933395,-0.1052728053166317,0.9999523483268485,0.0712470499879101,3.794085431414066,-0.5957211454143208,0.6051370926381291,0.1092967942069875,109.3887240356083,2.0
-0.3405628747524721,-0.5145383599860811,-0.2835780095232188,-0.4418241065615049,-0.284990587132428,1.1841391259717238,4.092057373567574,2.9661467035931737,2.9274920284879493,2.8934659538469525,-0.2478487435848957,-0.0682346163253609,-0.0695151320362918,1.0942933871350342,0.977857506998589,-0.4452750576815666,7.330021146835076,4.030169891063225,2.6066167286193704,0.1900687941255426,-0.1231269898790405,1.9875967820599254,1.140600676132579,4.3442095447096944,-0.1052728053166317,1.0075811690688268,0.0712470499879101,3.794085431414066,-0.5671298858862912,0.6051370926381291,0.1092967942069875,109.3887240356083,2.0
2.4821502344667805,1.5237725448241013,2.1047283408465685,2.4747291448237276,1.106476062988464,1.3961981676564517,1.8433877697842531,0.7641548792900519,1.0611608584198113,1.0805479255162291,0.0493754661582262,-0.0667616708365802,-0.0625164318017565,-0.4675761407964361,-0.97822848019362,0.0236891338606869,1.6146793468728553,1.216769639329314,0.7882456150361259,0.0398241941174731,0.0513627063494079,0.9988253827981782,-0.4631381921256037,0.0020498754291652724,-1.0115343467380704,1.007065568233215,0.0712470499879101,2.1557730323550057,-0.97760811617719,0.6298132265008586,-0.0751293947720276,95.48845470692716,2.0
0.3777888417893352,-0.3862056191448745,0.3274768406101623,0.0357004641397464,-0.2658701665456733,1.1092812077788108,-0.4802511470327897,-0.1605956638495189,0.5572519435151726,0.5761152705804912,-0.2211879744058398,-0.0924142898941079,-0.0888987379709566,-0.3035325215838162,0.6283783781599586,-0.1497610364660191,-0.4447146405657912,-0.067590967826952,-0.2142783346346748,-0.5736610833746869,0.1253301030535338,0.2579902229520678,-0.297089434445687,-0.2574804337821373,0.8009887361048069,1.0,0.0712470499879101,0.5940025485731493,0.7799673017919746,-0.0229419692009858,-0.1344157252162278,82.62398320650748,2.0
1.2772172300534572,0.7112379928221297,0.9132461712427452,1.544089688653415,1.0697891782584013,0.6462790395929353,-0.594259876545692,-0.5294060765634157,0.17919332598876725,0.20314478173168007,0.2527465298126295,0.0597857138267059,-0.08182992915388422,0.4631272281994518,-0.9894372674133093,-0.4413966660044313,-0.4675882343659777,-0.6516925080154966,-0.6313850655992435,-0.3667978661474442,-0.6109171902421452,-0.2956922350745831,0.4128475963017096,-0.25372541794665515,-1.0115343467380704,0.9899112935540012,0.0712470499879101,0.1964572326844981,-0.9975352918345518,1.5897097841531682,-0.1405006469597452,89.39472322814278,2.0
-1.1208021161265458,0.0813460466224376,-0.9994787320655448,-0.9009740576950372,-0.1816187019814222,-0.6436991411447527,-0.0704743624055283,0.0642603087557163,-0.6191990633782876,-0.6224601181141022,-0.2260459974128745,-0.1004870746129499,-0.0925686438121456,-0.677394650682664,-0.9913959928821482,0.0050929820723958,-0.3285601033825813,0.1309455682000406,0.0059559102334435,-0.644727074789841,-0.0821167076492408,0.8201003592562105,-0.6815089889247069,-0.2484585148350299,-1.0115343467380704,-1.0,0.0712470499879101,-0.6247077139057728,-1.005760024714203,-0.4951465066170444,-0.1097806491756744,82.47507031449757,0.0
-0.5945753933189323,-0.4422062248193085,-0.6637511372288865,-0.4696285162299596,0.0407659777404965,-0.47502965716664153,-0.7895010445000348,-0.6831018061306381,-0.6281706789694206,-0.6070399631380106,-0.270822840406541,-0.0999768357410448,-0.09066087316220059,-0.3736841015733501,1.833783333193677,-0.4786905823910068,-0.519858419807852,-0.8033386961419402,-0.8184628117268722,1.6008232568469536,-1.579606126561386,-0.3671684822012355,-0.3612673947123215,-0.28411582122313045,2.1603810482369648,0.9981643131758184,0.0712470499879101,-0.9103441754611218,2.14979417334373,-0.4535832903043433,-0.1398424824504923,100.07818608287724,2.0
-0.2177715610401911,-0.8721985322056681,0.1068161662060109,-0.5997057351052497,-0.8532657021684477,-0.0165035489339062,-0.9073299937978556,-0.7649919892782832,-0.3105597284816545,-0.3043555505908619,-0.323290541932339,-0.1003436606929131,-0.0914767211277939,1.1540775292926615,1.438265563681012,-0.4942056548649822,-0.5157410222906043,-0.8013262630870502,-0.8057400916655004,0.258523245942137,0.503048106422463,0.2583599639667262,1.21474128223643,-0.2746611280510229,1.7072502775262457,1.0,0.0712470499879101,-0.2975259528912486,1.6728309650450623,-0.4832092074586816,-0.1391590739706567,88.1377151799687,2.0
0.1197908686212662,-0.0664077852264379,0.2610578351608818,0.1699806751742215,-0.0344995647812162,-1.2543937498231186,-0.3644862361557077,-0.8646143622631746,-1.121031201774336,-1.1454998156069145,-0.2861129006769627,-0.1048437923414573,-0.0930703576247422,-0.688356711452647,0.2234347853994319,-0.4941539192226441,-0.4634224241864443,-0.5027016647289573,-0.28125146385807,0.9491435370790858,-0.565445437715913,-1.7417266449115318,-0.6876347558679935,-0.2740862049931586,0.3478579653940876,-1.0,0.0712470499879101,-1.1687164882819367,0.3335354701654303,-1.0161849688697584,-0.1196160676594154,67.29896907216495,0.0
0.3531544130933701,1.1084249816416034,0.3224553501177503,1.7434893358978272,1.8802112451775612,0.1491979655170943,-0.2132182680129657,-0.006309414898815459,-0.08186129224749825,-0.07565571119194289,2.012314598331642,0.2055642809516869,-0.02049693742691102,-0.3108919683530142,0.687463123764947,-0.1892357591880873,-0.3634462795901336,-0.3376380371207574,-0.4767154253022759,-0.7560065576586448,-1.9774746518326256,0.7469443117466354,-0.308581468234701,-0.2291270801068492,0.3478579653940876,0.9966798205452115,0.0712470499879101,0.0089182427267728,0.2116282490828101,2.020033450778388,-0.1402857987322309,116.93311582381727,2.0
-1.1528396532920957,1.2338842147181708,-1.4679374975775217,-0.7253105392470481,0.4830017125482799,-0.2474695879378564,0.2978985308111633,0.2750592174169002,-0.2163504352618517,-0.207786599835281,-0.0618882238678382,-0.1031349349451237,-0.0927412227039423,-1.0000752057901556,-0.5864524001216215,-0.0137852664520338,-0.3121950132675448,0.1633498963681232,0.3873103542036902,-0.5085816145623606,0.2442836483987075,-0.4451972432472154,-1.006798543332836,-0.2740987311699534,-0.5584035760273511,-1.0,0.0712470499879101,-0.1987424663853252,-0.559328193087658,-0.7634576070525891,-0.0911860139290919,84.63352127114301,0.0
-0.0807547694484036,0.8106196699746974,-0.1994947538311269,0.3267307289058781,0.5989065942322999,2.4363778823974016,3.4876946425546813,2.549929281330418,3.3812287434032227,3.2941583969816777,-0.1589779797361006,-0.0753718867353531,-0.08846264514964675,-0.045861302320748,-0.5210482923547851,0.8716833415853008,5.281975270735357,2.7259235067300693,2.1729531111343054,1.1906986503897514,0.1268828419003877,1.1802109926268467,-0.0327455282748286,1.2327824890726027,0.3478579653940876,-0.9964165208630824,0.0712470499879101,3.102622383796945,-0.48539254963315975,0.4712148117992396,0.0836803995843426,103.40532959326788,0.0
1.1989459578959054,0.2901338677952462,1.117417837859756,1.4437297797241573,0.7502822208210767,0.3877965134885176,-0.6385952132178153,-0.4404208160728596,0.006564923259176,0.0197423317814125,-0.1009748193993181,-0.0452184458564116,-0.0805074394679428,0.3659266106832864,-0.9913959928821482,-0.4544047302180287,-0.4716495651117625,-0.5636631926532516,-0.6017789604946496,1.236031946452948,-0.8614464804303196,-0.4111534634792342,0.3401419468010664,-0.251229640941397,-1.0115343467380704,1.0,0.0712470499879101,0.0330189448218605,-1.005760024714203,0.9159383400346682,-0.1398260868667837,84.48196469685341,2.0
0.2694177561249389,-0.0259447096669485,0.2837791893038529,0.0100514350657455,-0.2565802095468084,0.020811559680629612,-0.4480699302563771,-0.4356556961379797,-0.2271743814425902,-0.22985892465818913,-0.2368065796567791,-0.0957094682639684,-0.05594134803427551,-0.3765354452547354,1.5333961042707833,-0.4769160336322334,-0.4775443415662949,-0.7267889801187942,-0.7341192420400354,2.192252716028677,0.4169718291450032,-0.12772688509845018,-0.3721419424977107,-0.2626147237327425,-1.0115343467380704,0.9920195503950269,0.0712470499879101,-0.7152125890575481,-0.6464158594963036,-0.1789047755404069,-0.1360127873349709,100.49725202826484,2.0
0.3054983896201626,-0.2704570571584475,0.38517056116128,0.0316321832677148,-0.3256974896183633,0.9984657545023691,0.1038224611731,0.5050743784170275,0.6339891263945501,0.6157348950731018,-0.1091516950665317,-0.0749482582976173,-0.08536425191534137,-0.2464592554636227,1.827153576754494,-0.4539355506146924,-0.1001901753491501,-0.000570337174963,-0.1542546318285356,0.7531193239335684,0.8717306824505914,1.108093085553287,-0.2403695596532182,-0.14677272728612853,2.1603810482369648,0.9929305359853104,0.0712470499879101,0.7321141743900907,2.1176851502528877,0.4799318243254492,-0.1246455585196631,97.07865168539324,2.0
-0.3798624052979633,-0.8224457230756225,-0.0973198870032524,-0.7399401850319036,-0.835462766392441,-0.212187088496661,-1.0123233029919938,-0.8936058769435878,-0.4557459135134873,-0.4536609908399888,-0.3309518416719377,-0.1003848231286232,-0.0910469076995741,2.167600312290308,0.6283783781599586,-0.524639076902319,-0.5249827340382108,-0.8280497928420048,-0.8357787819713898,-0.2242517080640621,0.7676832599163326,0.3021338271214119,2.264547722072804,-0.2822995821225073,0.8009887361048069,1.0,0.0712470499879101,-0.4507498506260413,0.7799673017919746,-0.4866143631846176,-0.1405813343499805,77.49547218628719,2.0
0.2065274975200292,-0.0307723339836336,0.3479545500650344,0.0609453593522872,-0.2536412049689857,-1.2645606289890785,0.4754867103884544,-0.5598885223114723,-0.8674016287429314,-0.8802374365760129,-0.1422261806492333,-0.0760721545020315,-0.0894002969558893,-0.1440295468320765,-0.9913959928821482,-0.0594057043581393,0.1466509283395187,0.0418695185680121,0.9601834248230992,1.1187484399124972,0.2326521041938494,-2.133904448926619,-0.1596496365650661,-0.0106056549973202,-1.0115343467380704,-1.0,0.0712470499879101,-0.8918705398859568,-1.005760024714203,0.4565595596759306,-0.1143341060477524,70.62068965517241,0.0
-2.184240551683178,0.3391709106827255,-2.1678478000411734,-1.677045782985578,-0.0464244914015773,0.34050864366966194,1.8585635320984175,1.9699562607257683,1.0187470432727823,1.0452212087285746,0.0501817821854522,-0.0828669326665953,-0.08742601344934685,-0.7081532525164939,-0.9885434566075488,0.672463996975243,0.8539490093132127,1.0064627549645904,0.9932187160181444,0.5229763933280094,0.3742141053737436,-0.11191746098813371,-0.7119258785617911,-0.05781391057853752,-1.0115343467380704,-0.996170032263507,0.0712470499879101,0.9898291737411424,-1.0113192661398913,0.295410783714393,-0.0720514162061261,90.32932566649242,0.0
-0.1520846882165989,-0.6551267752129013,0.0264723183274174,-0.4533823349992637,-0.5935860678038131,0.9032637718224654,-0.5544200458667753,-0.2618237910585956,0.4459050949296212,0.45692518338454036,-0.2640653069155077,-0.0920165940716175,-0.09200105092470341,0.1224321140917261,1.1823529462884317,-0.4776345127118799,-0.4853174960693556,0.5243521344640177,0.4828166602705834,-0.0420092821482179,0.4476106156033513,-0.4994562545260568,0.1418883755959021,-0.1877336470030192,1.7072502775262457,1.003364524827585,0.0712470499879101,0.4442811342254157,1.4133282395320086,-0.0062959314151506,-0.1377071813451724,89.18709677419355,2.0
0.0876679763195054,0.2732611492089099,-0.1873149683814465,0.0028578523317558,0.1812639092251479,-0.13948716954811805,0.2102412874083786,0.5797709534470036,-0.037882554592576535,-0.023621660819906565,0.0216966975041375,-0.0313237288438042,-0.08464385554780336,0.116870816006905,-0.9822034669471794,0.8726309285089512,-0.2054489761187472,-0.2915689547096232,-0.4513933054562333,-0.6359413297126789,0.9113331314343648,1.3152391924771192,0.0900662316681953,-0.01641323639398863,-1.0115343467380704,0.7121992229961591,0.0712470499879101,-0.0884478384429642,-0.9944115236759729,1.052558271452122,-0.1355950036833754,96.60377358490568,2.0
0.3149501564144062,0.2213231892427637,0.0053891809408361,0.1772012001656419,0.2170724707480453,2.730858064270396,3.1890592757285856,2.6320354017123755,4.159939453772569,4.035891608258096,0.0944665294885995,-0.0853518253555055,-0.085433733747532,-0.7852554229370505,-0.9913959928821482,9.908988461564256,3.212135959129075,1.860864056341028,2.001842791366535,-0.0822608907175176,0.5705078641018495,-0.3257648436409226,-0.7909911175665455,0.2500953770092404,-1.0115343467380704,-1.0,0.0712470499879101,3.912108606612362,-1.005760024714203,0.2256191211546285,0.065427803795067,79.09759686120647,0.0
-2.031870685039558,0.206413284483681,-2.047795002524002,-1.6068342601212438,-0.0722674626893287,-0.5767231172650032,-0.3051817220569568,0.15314656311318864,-0.5614467536304338,-0.5537942296681541,-0.0612016158430912,-0.1025207559698834,-0.08842829726570073,-0.9860835588444554,1.666949729830048,-0.2909065172711714,-0.3838295179536956,0.0058514775053875,0.0108170943394392,-0.5041314330408455,0.557361452350656,0.5976104619225168,-0.9918832854899486,-0.23750794360434924,-1.0115343467380704,0.4602563001521826,0.0712470499879101,-1.237613977646817,-0.5048321283663184,-0.6913015865490387,-0.1110478262237673,106.9417225373904,0.0
0.3525437277063806,-0.4404720893902434,0.4535483040366788,0.0016993352622369,-0.4280897065767616,1.2879397928102958,-0.432077966977309,-0.1403380897149304,0.6973846474893501,0.7164277617504967,-0.2511516098603883,-0.0736334658491705,-0.0872432852809266,0.9169415452508468,1.438265563681012,-0.4279825920519549,-0.4277619022129952,-0.5185430364667637,-0.5354687872896308,-0.1363782853745915,0.5669158975226217,-0.0404973389862186,0.9315683118364834,-0.2013416524774951,1.7072502775262457,1.0,0.0712470499879101,0.7342118850389852,1.6728309650450623,0.506305954250084,-0.1372958629944424,90.84824004616272,2.0
-2.092427723180573,-0.917487734289116,-1.756940301449324,-2.0363746703384664,-0.8867433290261753,-1.2718830136624446,2.251975562221148,1.8085862755576632,0.2895795639342408,0.3066812588021445,-0.3406070049454602,-0.1084151743847118,-0.09357664415233,0.0619344438674527,-0.5864524001216215,-0.451974467974247,2.8551362822813777,1.094689609191086,0.3341817728970643,-1.0379643921408055,-0.94326547665599,2.1351485101353154,0.0743396575915964,1.3829274582667714,-0.5584035760273511,-1.0,0.0712470499879101,0.3233439949391846,-0.559328193087658,-2.7946509095020513,14.691964140655026,98.14696485623004,0.0
-1.313041501949936,1.7086124475266742,-1.807048366150202,-0.6106173493646724,0.9484792306841326,1.3404473198068483,1.7262818019035728,1.7532128981226713,1.6406833693780987,1.6405193739068953,0.2302323183909647,-0.0558492777345112,-0.07360732094652535,-0.550055399022395,-0.9891137536156575,3.754424058501586,1.4312291316456085,2.018037689034895,1.8513447946328172,0.0891636781052647,-0.0273193288999404,0.42939321081019083,-0.5498809261309162,0.06421766366166594,-1.0115343467380704,-0.991717572780497,0.0712470499879101,1.8330022892434543,-1.0020322594252926,0.7894358352229107,-0.0931929275301979,84.67692307692307,0.0
-0.0459576413046892,0.2450557816050034,-0.0342129284744989,0.1797607146215559,0.2578469365576087,-1.3649587611538507,0.5922620785159568,-0.8013489365076241,-0.8869190347661364,-0.9005831522322678,0.0032114987402252,-0.0944504241958237,-0.0887999938544328,-0.8621476999132237,2.653096341962592,-0.0900176426244491,0.172059061508131,-0.1933833593528741,1.7267481685933823,2.6762998356219367,-0.1484837896696703,-2.736514767887018,-0.8635797651447213,-0.2078091645994385,-0.3318381906719914,-1.0,0.0712470499879101,-0.9130352205375772,-0.336112277274386,-0.1150877476159669,-0.0777206162773054,67.84099766173031,0.0
-0.3116151484992306,-0.9032922100628584,0.0108024189184718,-0.7058851716395327,-0.8953238711269451,-0.2855393804533673,-1.025753215312054,-0.9216078118871986,-0.5086892259079945,-0.5082532855324848,-0.3340661741011103,-0.1002238238069051,-0.0903560882260265,2.9352203796865166,1.0333219709204853,-0.5268880761034734,-0.5251144820802909,-0.8428066635940149,-0.8457203626588874,-0.5037386861153955,0.5707548773074007,0.5905536056757406,3.055740784436975,-0.2816949114953249,1.2541195068155262,1.0,0.0712470499879101,-0.5069256488094833,1.2263991334185185,-0.4733902922695273,-0.1406085035299017,82.0,2.0
2.5952600608209693,0.3606806536456127,2.7958065181888148,2.185504011305451,0.0882967759128707,0.1069170037114702,-0.9207983011846576,-0.7951188748979188,-0.2223563330899048,-0.2139356153070104,0.0476895644404003,-0.0804531738236936,-0.0895817399927439,-0.6674986451133211,-0.1815088073610948,-0.5189075954862606,-0.5209341827997869,-0.782294441263608,-0.7948966525897826,-1.0614169622510157,-0.1376030034771501,-0.421552550626026,-0.6666858981028123,-0.2845733554608357,-0.1052728053166317,1.0,0.0712470499879101,-0.2050250332410355,-0.1128963614611138,0.3570542237405275,-0.1406625971129852,81.5070310427169,2.0
-1.0554271046798471,0.2383113444840785,-0.8726593870763286,-0.396641940850266,0.3304437277960112,0.0865533631697232,3.1826814171049236,2.7378937395458625,2.1963453080643136,2.1868845098042895,-0.302308121926149,-0.1075810979333771,-0.0932767854390703,-0.9449391043214204,2.653096341962592,0.0635131833340782,4.946090247859379,1.8405239174607475,0.80092990195862,0.2880937908061032,-1.6386555035143842,2.2859115714077296,-0.9488933772792694,0.1374790816655868,-0.3318381906719914,-1.0,0.0712470499879101,2.174019428892791,-0.336112277274386,-1.8663621250670153,6.113978200242753,84.81653010331314,0.0
1.1601225433422775,0.152603579849514,1.1216914467894683,0.7416953778531064,-0.1340203404854198,-0.9534690567058456,0.0507195131705785,0.0385834937088424,-0.8032561420201698,-0.8134474803179367,-0.1802936967472787,-0.0993948243323881,-0.0914385892341485,-0.759658090506773,0.2234347853994319,-0.0069575964022657,-0.1670568424038327,-0.1581663355967466,-0.0514842977890518,0.3270413824242081,0.6683930416669146,-0.7152690269527824,-0.7602730287068465,-0.2303695408431735,0.3478579653940876,-1.0,0.0712470499879101,-0.8224728142813977,0.3335354701654303,-0.4090410102466747,-0.0910848494366125,71.03594080338266,0.0
0.1149777032947738,-0.5375284021996791,0.321671855147303,-0.204893894716165,-0.5620339956694864,1.2610168182098374,1.730926412410846,1.4479551936769517,1.305199304389401,1.2882622982817642,-0.2490238865317799,-0.0831328506449107,-0.08320824712909952,0.4214239506242907,1.7233740476017865,-0.4115430966849465,1.4284399758204704,1.764591883292307,1.0621203298160746,0.4624784793361732,0.8471940990532371,1.537523798725709,0.4449824682072612,0.2807298222043235,1.2541195068155262,0.9980200487384601,0.0712470499879101,1.4886342415810694,1.9559596979985685,0.2882704366698158,-0.0423795946478529,101.05263157894736,2.0
-0.3584020892168736,-0.7965710097959366,-0.0488856524665116,-0.6781885310008007,-0.8039782575817426,-0.2479592210639767,-1.0322479534055409,-0.9091238032662332,-0.4819338008090014,-0.4806546752760641,-0.3066217975406415,-0.1003986751686459,-0.0906485553739894,0.2206859047502159,1.0333219709204853,-0.5261365803958299,-0.5260973500029512,-0.8434604679964991,-0.8440496699980954,-0.0969214139290995,0.7551967147582559,1.1930210945339736,0.2561777890282116,-0.2850176913717225,1.2541195068155262,1.0,0.0712470499879101,-0.478516392791242,1.2263991334185185,-0.4877640585797209,-0.1407536013521634,82.53735255570118,2.0
3.371362855437918,0.3399278828433352,3.155145802362134,2.6537873877079816,0.3345988721991398,1.259553755787607,1.287513364492145,1.4780716413259591,1.330885215018044,1.3591788586784568,0.059241506301624,0.007707426347849,-0.06432698585618528,0.4780586743854985,1.846126014797113,0.4618338610277953,1.0887535699931157,0.9109793903139056,0.4100808634418847,1.484336290146864,0.71047644032646,1.7621273793555452,0.4951962560641835,0.5007475097378051,2.1603810482369648,0.9911426983730918,0.0712470499879101,1.435163462497385,2.113858974530936,1.3344733570224632,-0.1230623617399372,95.3191489361702,2.0
0.2109563936631514,-0.3940090910160957,0.3474559623565679,-0.0251890376535749,-0.3611682345231202,-1.2655526542731184,-0.5034170493591341,-0.6436159018767491,-1.1541352177460569,-1.1802621037965122,-0.2144816410955902,-0.0916464692394042,-0.0913673911606575,-0.3079552446823387,0.2234347853994319,-0.4463703086695389,-0.3955662662129474,-0.4066980515735538,-0.4999175084472202,-0.3088638422060424,0.3487168755985529,-0.0951630241298951,-0.3073654088953249,-0.2408965572608009,0.3478579653940876,-1.0,0.0712470499879101,-1.2051429792145216,0.3335354701654303,0.0088435704725397,-0.1309969655691504,70.69963177275119,0.0
0.0546024139701673,-0.178449923325243,0.1322441393377998,-0.1229894321269185,-0.2796530845658074,0.6854470445466628,-0.2323699904562174,-0.3037015305021577,0.2968534820886162,0.3140279145680687,-0.2523091636559187,-0.0843027942419775,-0.0881592257307411,0.4063720695563361,0.6283783781599586,-0.1424348176698025,-0.3527627487459725,-0.5986034234087649,-0.5907368401106371,-0.313033117675912,0.9500000057907624,-1.010623764841842,0.4225788646876154,-0.1747273309189557,0.8009887361048069,1.0,0.0712470499879101,0.3307490239738954,0.7799673017919746,0.2559473952655424,-0.1317334835644218,76.07924921793536,2.0
-2.031870685039558,0.206413284483681,-2.047795002524002,-1.6068342601212438,-0.0722674626893287,-1.3611087791431704,-0.3051817220569568,-0.3669918516444986,-1.1835923438302276,-1.211222232543708,-0.0612016158430912,-0.1025207559698834,-0.0928760952851684,-0.9860835588444554,-0.9913959928821482,-0.2909065172711714,-0.3838295179536956,0.0058514775053875,0.0108170943394392,-0.5041314330408455,0.557361452350656,0.5714073969885376,-0.9918832854899486,-0.277176103109119,-1.0115343467380704,-1.0,0.0712470499879101,-1.237613977646817,-1.005760024714203,-0.6913015865490387,-0.1110478262237673,106.9417225373904,0.0
0.3054983896201626,-0.2704570571584475,0.38517056116128,0.0316321832677148,-0.3256974896183633,0.888255186351201,0.1038224611731,0.44509616731298257,0.5395520542588088,0.5283999280022474,-0.1091516950665317,-0.0749482582976173,-0.08494118271916748,-0.2464592554636227,1.8574837942213438,-0.4539355506146924,-0.1001901753491501,-0.000570337174963,-0.1542546318285356,0.7531193239335684,0.8717306824505914,0.8032581138717604,-0.2403695596532182,-0.17138684731147852,2.1603810482369648,1.0226594697013975,0.0712470499879101,0.7321141743900907,2.122963594340795,0.4799318243254492,-0.1246455585196631,97.07865168539324,2.0
-0.076838625378286,-0.7245035112366226,0.1839548073873202,-0.4579625187624782,-0.7487114588539499,0.1010173960854091,-0.9840478872133928,-0.831217950368426,-0.2294997291621212,-0.2212505287340049,-0.2890329980899854,-0.1037699798143164,-0.0919752310694319,-0.5441271838712968,1.438265563681012,-0.5243781571796076,-0.5235986798234943,-0.8184246059957982,-0.7964712350960418,-0.4116703063137819,0.8495394436609682,-0.1761021641296886,-0.534222413308813,-0.2848815286182729,1.7072502775262457,1.0,0.0712470499879101,-0.2125001396955817,1.6728309650450623,-0.846955751108084,-0.1399616896629831,89.48731227343346,2.0
-2.2458062210244987,-0.8305924449471236,-1.9934133288934115,-2.2013690548439087,-0.8693119915301234,1.20650812159582,3.6347969888235823,2.999015609376248,2.8706553677046056,2.817520703178229,-0.3336847906310478,-0.1051570189159456,-0.07454972286432156,1.0230404471760826,1.985561815953398,0.5293942713461138,5.363249709097529,3.50590299745386,2.1686810800969,1.3314490558194163,0.624393698856642,2.1426258017790416,1.0435948796633474,4.016327716736954,-0.5584035760273511,0.29394393068121694,0.0712470499879101,3.325147605923407,1.1826266505855434,-1.0745221346620155,1.9968074838161527,101.73618940248026,0.0
-0.1492128570350595,2.408100318381076,-0.1487100343830443,2.842706496811862,3.705400651329095,0.0365302632858347,-0.8393531500396062,-0.7107027446768864,-0.2678478537025014,-0.2605434754451419,-0.0475419802742248,-0.0976991862464756,-0.0912546920723837,-0.8869687838809743,0.6283783781599586,-0.4808546694082711,-0.5100809801069439,-0.7276754963989639,-0.7541524709579986,0.6383459351078271,-4.0535340008987975,0.3950805404952688,-0.8898098076100253,-0.2840773152786189,0.8009887361048069,1.0,0.0712470499879101,-0.252678138158807,0.7799673017919746,-0.2935853478864222,-0.1389285463661786,78.94570374275172,2.0
-0.2144100002627868,-0.6918274074150366,0.0068849440662354,-0.5229203014278312,-0.6621966229481571,0.1485767492825263,-1.0101310579105152,-0.8392566536724431,-0.1960531402764964,-0.1870129765220781,-0.3087374459923424,-0.1041719042143394,-0.0919124677418069,-0.2968684533351426,1.438265563681012,-0.5268724778491433,-0.5252397596874845,-0.8414273920136291,-0.843319532976466,-0.4549036254305763,0.4353137543711158,0.9511226673348296,-0.2787989316538128,-0.2850403732392563,1.7072502775262457,1.0,0.0712470499879101,-0.17752514525828,1.6728309650450623,-0.905548875875581,-0.1403396527583483,87.65758754863813,2.0
1.6122463678921837,0.7188809857611815,1.4526824583956957,1.50467316603234,0.5086757755269611,1.1273550524716585,-0.1909227152193666,-0.0617932473402908,0.6306437554915169,0.6496643224014755,0.0924160753072017,0.0386347724137707,-0.0095258575915983,0.6966609842337832,-0.1815088073610948,-0.0292363902853162,-0.3098502629834232,-0.3737930407516725,-0.3532741421516754,2.042107133413163,0.5007765453854603,-0.4783858478635958,0.6878218499717896,-0.1213375026506046,-0.1052728053166317,1.0,0.0712470499879101,0.667560433371283,-0.1128963614611138,1.49711163601435,-0.1390549124728286,92.01636469900644,2.0
-0.1134671794235206,0.2778608728998724,-0.3348969300875155,0.2300619092446227,0.6061358698605075,-1.174189880747147,-0.0933044149858643,-0.5599677758777376,-1.0007145889624414,-1.0194293789032494,0.0026379651269102,-0.0806246155456599,-0.0918647878733759,-0.6126936757095455,0.2234347853994319,-0.1918508096286523,-0.212548733967481,-0.3392147648045561,-0.2239210487950716,0.596760229406319,-0.5211211476791286,-1.3861436239358638,-0.6096855310012602,-0.2182417616325363,0.3478579653940876,-1.0,0.0712470499879101,-1.036895500287481,0.3335354701654303,0.3528529168755164,-0.1265057679405347,68.19535126664925,0.0
0.5506839175798048,-0.2343312920830035,0.6022342813829236,0.4948504152732787,0.04921139319401,1.3356074393551354,0.1842222836053196,0.5623557306588608,0.8948645978395431,0.9133082583557957,-0.1435559928241834,-0.0526249211033872,-0.0653554707533708,0.4461279265621113,-0.9913959928821482,-0.2918970857551969,-0.1957956122588697,-0.088739812291654,-0.1956811053047736,-0.7663819001681277,-0.4880338546409337,0.9403574685958618,0.4122901935952132,-0.0695052207902647,-1.0115343467380704,1.0,0.0712470499879101,0.930101003750702,-1.005760024714203,0.8303104504300585,-0.1333360733548096,99.59966168593178,2.0
0.3349311185234336,0.5888469426955564,0.4389111934524138,1.7153616191402044,1.7344771561117314,1.5477796990618442,-0.0365155151642561,-0.2798031612315913,0.9823437848812736,1.0002064818824077,1.0608335273393343,0.4427177464244294,-0.0377583517215216,0.9522890978804686,-0.9913959928821482,0.3236073990156002,-0.3449682326341073,-0.4284696036723489,-0.4854159570447213,-0.1376396811352338,-2.807975834141294,-1.0929130232169917,0.7754286901655648,-0.1285844773559163,-1.0115343467380704,1.0,0.0712470499879101,1.0162494311825987,-1.005760024714203,2.408169417612222,-0.1405318598763534,80.4985835694051,2.0
0.4608776820857833,0.3921876567900789,0.2217406330075275,0.2701250460440337,0.128361826824339,1.2680959498473472,1.1524147288021502,1.5109678125195767,1.3028745874570344,1.3389385332516142,0.0360954352906334,-0.0213383784774184,-0.054731802626103665,0.2022955570721287,1.7148146201593493,-0.1584675162028276,0.9311289301052094,0.5576869572524923,0.1809240650405136,0.2573464775803518,1.0644261665987722,1.7120960801834664,0.2076970616293658,0.6856397727443515,-0.3318381906719914,0.9867285191583139,0.0712470499879101,1.244475260268263,-0.0788910648610394,1.1363385274429807,-0.1194385914993859,109.59830866807611,2.0
0.4427049163158917,-0.275135547481416,0.4578219129663912,0.7113314537287377,0.4576316845259252,0.974654144998768,-0.6460675055289947,-0.20266860376739762,0.46116602176864924,0.49591017211898225,-0.2293338565612767,-0.0910819968781795,-0.08367942396362814,-0.189408368786463,1.4460590697590243,-0.4962322536909281,-0.4783175089944267,-0.0701403278590291,-0.2575611819536127,-0.0254147087014433,-1.612071843456686,0.6420798049871604,-0.1830836546831478,-0.252277684793258,1.7072502775262457,1.0035223595505018,0.0712470499879101,0.3957800131747482,1.6743340623865413,0.0313116485857617,-0.1373676444737356,87.6121337827327,2.0
0.4091927161092868,-0.6045945377250471,0.6258103573118371,-0.0301464130208187,-0.6314215290355537,0.4987336788798698,-0.538386101918939,-0.2865016669161441,0.1012951235217048,0.1160248421446086,-0.2579138661104732,-0.1021721912869049,-0.0922015345294245,-0.6362103267777174,1.0333219709204853,-0.3898117157932547,-0.4753081732031326,-0.6553390786702736,-0.6932911085116413,-0.6802396701863994,0.7528121268860127,0.3293866189023848,-0.6307421325382369,-0.2751390901897508,1.2541195068155262,1.0,0.0712470499879101,0.1306789798491824,1.2263991334185185,-0.6534740150188116,-0.1306823809273921,76.3062536528346,2.0
0.1819963953581538,-0.0137211938091715,0.1791826107491413,0.2564922637841131,0.1516373918142224,-0.5384239186454782,-0.0496971039684062,0.0234068697778029,-0.5384424943632673,-0.5389679179323954,0.0179910435176669,0.0590346035956736,-0.036090170223233,1.2251682355912008,-0.1815088073610948,-0.2056350146204417,-0.2863676377808012,-0.1141644668974871,-0.0431654869417323,1.2488683914443746,-0.1714748237983315,-0.030642346686929,1.18292519258039,-0.0509246638191251,-0.1052728053166317,-1.0,0.0712470499879101,-0.5385668215049328,-0.1128963614611138,1.5866255709726118,-0.1391059374832097,82.79260780287474,0.0
-2.773457051062002,-0.7061869287317242,-2.49944423957911,-2.491698820916843,-0.7533395465224753,-0.1876454244791334,2.1057476813733507,2.4810444720339992,0.9322820092353976,0.95050073517444,-0.3255222170863067,-0.1064855621706422,-0.0927875240047092,-0.3064300558952322,-0.1815088073610948,-0.2834322962567994,2.716091736066129,0.919950477918378,0.3154315914675305,0.3485696158573704,-0.3281253739833225,2.1602324989746187,-0.2990498916448177,0.8206847896267739,-0.1052728053166317,-1.0,0.0712470499879101,0.9669958812514576,-0.1128963614611138,-1.397888773946344,1.7394230481442254,88.93463715903242,0.0
0.0582000069095726,-0.2065182457867494,0.0751202333106438,-0.0884764003582262,-0.1821929902322611,0.8421181459032228,1.5573466623586756,2.0202359748559924,1.3042270019108058,1.293485326967259,-0.0694811872316612,-0.0679144528769316,-0.06089681149419892,-0.2254844867829984,-0.9848866609377612,0.2269391185686636,1.1128779230742611,0.7799757066958852,0.5923840059482361,1.9440033367612848,0.6288242964396628,1.0985583308834228,-0.2281440887913323,0.32457942235272963,-1.0115343467380704,0.9922583220992275,0.0712470499879101,1.01893131607766,-1.0242787503275648,0.6105762955867198,-0.0891258640623916,103.7137069547603,2.0
0.0532285294143055,-0.4543970248934647,0.20282991349355,-0.2705521760747155,-0.5316305000368376,-1.2636250629909953,2.8743137290799257,2.2731175419054392,0.8986092741742879,0.9170320129356336,-0.3238693099463426,-0.1070103989111994,-0.0933276815319452,-0.5418961678815675,1.8432091564415387,-0.3771533561906844,4.30734472098681,1.9213184255680649,0.8916630472829844,-1.068024650324762,0.4001244161026113,2.2575812417171055,-0.5390886555707812,0.8931682865502533,2.1603810482369648,-1.0,0.0712470499879101,0.9337965362572732,2.1192627966716073,-1.5837438764357863,3.527899266010198,95.64456411982498,0.0
0.625088962215249,0.1948583820726435,0.5989222344623965,0.3990437478498049,-0.0677745016680595,-0.1580739668677827,1.5559460362412314,1.4935150182098602,0.5263660621337372,0.5451215575503703,-0.0886693119722904,-0.0989667948007132,-0.0920139169454741,-0.8801196217662702,0.2234347853994319,1.387482122000236,0.8141734808375227,0.3964713854349421,1.4222038919430782,-0.7637907158029353,1.027678090877954,-0.9999547640053752,-0.8834640133468358,-0.1461477395717863,0.3478579653940876,-1.0,0.0712470499879101,0.5629634832615402,0.3335354701654303,-0.3780249782224567,0.036558766911733,70.2928870292887,0.0
-2.1994973501029955,-0.6080529762905053,-1.9608626742121016,-1.8159331200406983,-0.4169079765163096,-0.5662482175768321,1.8206527394663132,1.5266521918773133,0.44560382169703694,0.4703047858543931,-0.2557382448609349,-0.0944998138244154,-0.09040854946418368,-0.1393346258584542,-0.741228695560988,-0.1742237448097186,1.559464114213936,0.8245038182804512,0.3245068296004642,0.5664019932884456,-0.9068758421637334,1.4561007841779212,-0.1466841295155182,0.6010633668827808,-1.0115343467380704,-0.9895869322686142,0.0712470499879101,0.4130629161044547,-0.7112816209037796,-0.1174830773841576,0.0483666665873725,104.21711899791232,0.0
-0.087792804636559,0.1375087010658053,0.0410738155039348,0.2211170797776392,0.2382873543672714,-1.7863021821102558,-0.3088711536922075,-0.9335933019899858,-1.481193883336254,-1.525471216985444,-0.2563973036719314,-0.104229363581091,-0.0931241686790528,-0.7924252180699162,-0.9913959928821482,-0.3804616850499348,-0.4866205495331315,-0.5304570481885615,-0.496263456694773,1.9166135034504177,-0.699796379688655,-1.7167289775960737,-0.7950687628769773,-0.2801008493609619,-1.0115343467380704,-1.0,0.0712470499879101,-1.56873857926064,-1.005760024714203,-0.9143469737304512,-0.1292187363114838,70.33324853726788,0.0
1.8614943501501544,0.0430933568440353,1.5922514033585538,1.4754677589774905,0.339666121471248,0.478941959265163,-0.2728966488663576,-0.2523594622826745,0.1371631483049079,0.1524176609593526,-0.2024371577901242,-0.0670013455972805,-0.0433854869211928,0.4926964070050805,-0.9913959928821482,-0.4963658236703651,-0.3492930233142396,-0.5572207503604045,-0.5349727806752229,3.4731239737429687,-0.2323246160157127,-1.0479649005429967,0.5030095773882598,-0.1661631078923184,-1.0115343467380704,1.0,0.0712470499879101,0.1675288334437584,-1.005760024714203,0.6258575794117823,-0.1354529619207048,81.95731389901093,2.0
-2.018815445885659,-0.68683035705991,-1.7415196958946118,-1.862462398623471,-0.683310161581941,2.1208993649386927,2.027671128555039,2.5952409627292172,3.339924571036542,3.2915063636614734,-0.2991221946908053,-0.103317694006709,-0.0879183356095079,-0.3558837959784877,-0.37443886916221575,1.226397249617535,2.3369682973855403,0.8703271862311257,0.3334738524687773,0.2420796749000823,-0.0599449951607883,1.0062858023127672,-0.3676951853923759,1.5312918890837943,-1.0115343467380704,-0.9846542889749722,0.0712470499879101,3.3244304542376124,-0.29906789133614253,-0.7864704334354511,0.5439142553158315,98.63858207038274,0.0
-1.920340694020314,-0.8173972483535645,-1.650776732953718,-1.92165453819866,-0.8436041468896281,-0.5649645469844627,2.1690333750649944,2.01529365828331,0.8994380952595802,0.9156404597433595,-0.3328031017755822,-0.1070768909129279,-0.09191346513334661,-0.0728479297710011,-0.8210123234332408,-0.4150558541340501,2.5414387118673245,0.9362305646351268,0.2524595146195807,-0.383046644507489,0.3066550522517523,1.9885091081240496,-0.0780180398007048,0.6697811666834073,-0.5584035760273511,-1.0058938542871627,0.0712470499879101,0.517183164702915,-0.8112465134611013,-1.611307323452797,2.282708910528334,101.94690265486726,0.0
-2.3459969622722343,-0.7511306039426209,-2.1267855409081866,-2.1480772696460373,-0.6759795409682913,0.6209636013086837,2.6527225575597004,2.309764226999728,2.0207701826050544,2.017422849994972,-0.3332368991254942,-0.1042222755079779,-0.0925114942263127,1.3925888172438128,-0.9913959928821482,0.7853168177660613,3.312557533576011,1.8697116212902976,1.0971726979747447,0.4627544746474886,-0.1208966890018328,2.1424083163669683,1.3646374558757035,3.71971537217618,-1.0115343467380704,-1.0,0.0712470499879101,2.0107762888808796,-1.005760024714203,-0.9132555755720162,0.9622789537325304,111.82527301092044,0.0
2.5162557339034093,-0.522936941475962,2.884733197334581,1.7785950973299942,-0.506260472014483,0.0610730875254594,-0.9750702202348768,-0.8535112745845791,-0.2579634338395604,-0.25041163896002,-0.2747813938641251,-0.097501151877923,-0.0920120986209705,-0.1264979691556076,-0.9913959928821482,-0.5211010718829421,-0.5212676242734076,-0.8201685029063022,-0.8287289527002629,1.4176044797523877,-0.2381120535567029,-0.1646441568754132,-0.1231482984356726,-0.2832248049369941,-1.0115343467380704,1.0,0.0712470499879101,-0.2423141236108318,-1.005760024714203,-0.2812788438664745,-0.1402510480507095,79.15433403805497,2.0
-0.5232958412840661,0.4435997324111134,-0.7843737492700196,-0.2189308108375457,0.4695228294844723,-1.712246447756584,-0.2227658978947214,-0.5607115757468488,-1.410218802135643,-1.450282371677089,-0.1355144108608577,-0.0946674245885324,-0.0908519202926423,-0.6952904978932578,-0.9913959928821482,-0.4859699129750049,-0.3383435200302321,0.1137486183095529,0.4326066219101294,0.3002011858312046,-0.0809467352950486,-0.9670575295373324,-0.6961615665995461,-0.2516957518103267,-1.0115343467380704,-1.0,0.0712470499879101,-1.4892555568081869,-1.005760024714203,-0.1256744983144284,-0.1236005522611721,66.06882168925965,0.0
-0.0526156570588715,0.4199961397456201,-0.2733925749074042,-0.0035274626793136,0.254907931979786,-1.2764427461637478,-0.7129723903677361,-0.7276090364973318,-1.1902988843554847,-1.2182745783978168,0.3321196613911672,-0.0518677448714701,-0.0908535708100276,-0.5955328680107345,-0.9913959928821482,-0.5121907097360835,-0.4909466764299014,-0.3694726356692032,-0.3889666370599994,-0.7702606660374066,1.0374891015147956,0.9519569397044664,-0.6084854595391364,-0.277727471715915,-1.0115343467380704,-1.0,0.0712470499879101,-1.245014266368571,-1.005760024714203,0.8395680506223079,-0.1401312658859703,66.39769452449568,0.0
-0.2723230099966561,-0.5960466379043251,-0.0945420411989393,-0.501339553225862,-0.5389273389886734,1.056137816335913,2.546927741809368,2.6521024277343797,2.2685901504602968,2.271575735843192,-0.2761541106862404,-0.0834918856295574,-0.08239771466490735,0.9001114791244925,2.4924122895116128,-0.4519071226145416,3.571279521279027,2.5050002815394987,1.5177136249842638,-0.2002126646155539,0.5007350374338208,2.223143431814701,0.8939490806754182,3.2072257971131126,-0.3318381906719914,1.0062538599834214,0.0712470499879101,2.182461213191222,0.18987449049451652,0.2785110481968741,0.068564670043934,101.40582524271844,2.0
-0.1222999143949895,-0.1759095623509425,-0.1155183383622778,-0.3135250766766392,-0.2835379756744237,1.1324815276002438,1.6610839933601602,1.6669659369311018,1.3919706774399363,1.406062030070546,-0.2033382871439887,-0.0903164821677178,-0.08687665355904575,-0.3168211202813283,2.250977202968375,0.0703854135609586,1.4275544926426933,1.117150245583801,0.5942519081178156,0.7316192186753124,1.0096784734778244,1.5936079926372773,-0.3085637644326609,0.3046599572846338,-0.5584035760273511,0.9860383922113474,0.0712470499879101,1.6416962282918035,-0.5764238597658038,0.0606587043330915,-0.0039396878709092,103.342776203966,2.0
-0.0364085444447844,-0.301867692685329,0.0708466243809314,-0.2529588819724859,-0.3843762361893754,0.7968591644594104,-0.3328785303849695,-0.1627553305101457,0.3559645485026433,0.3736782934742471,-0.2281269682694104,-0.0888376787522989,-0.0889461145280332,-0.0858131275586844,1.0333219709204853,-0.4407696912195473,-0.4522826391111238,1.014898220871795,1.3686133986037998,-0.8786379549767609,0.804228712050295,-0.5768717918915748,-0.086797373083487,-0.2532975667454196,1.2541195068155262,1.0,0.0712470499879101,0.3908213227778718,1.2263991334185185,0.114044047126907,-0.1360842671165521,84.08759124087591,2.0
-2.2458062210244987,-0.8305924449471236,-1.9934133288934115,-2.2013690548439087,-0.8693119915301234,1.1052907452645602,3.6347969888235823,3.1148444414656455,3.4771270460507337,3.402229072192754,-0.3336847906310478,-0.1051570189159456,-0.0903974306738542,1.0230404471760826,2.2481527492020654,0.5293942713461138,5.363249709097529,3.50590299745386,2.1686810800969,1.3314490558194163,0.624393698856642,2.1435098289286074,1.0435948796633474,4.9593493283737065,-0.5584035760273511,-1.0,0.0712470499879101,3.325147605923407,-0.559328193087658,-1.0745221346620155,1.9968074838161527,101.73618940248026,0.0
0.9398929484249928,-0.6493617614832238,1.1393913104400275,0.3374268051058554,-0.6577036619268879,1.2525044575051552,0.2476641868442413,0.5447014803989074,0.8558849858821823,0.8745253960757783,-0.2907250796261574,-0.0958179764745723,-0.0899309562391076,0.3042137763185646,-0.1815088073610948,0.2605780327516878,-0.0686068223127587,0.2452651436550844,-0.0348080363131531,-0.1191735801639932,0.5346895888935774,0.6713420220112998,0.3238223208494405,-0.0134821428082701,-0.1052728053166317,1.0,0.0712470499879101,0.8915912282111393,-0.1128963614611138,-0.1846911389369757,-0.0950781970226267,71.79433913269281,2.0
0.8724863406771713,1.214353636384077,0.5479238345678282,2.3733454301121046,2.456087234121743,1.4360009624604528,1.4242242916814012,1.5164455246064914,1.5979961042815816,1.606415318661626,2.232721621949156,1.0977056997265735,1.1427304122146926,1.1802057249542073,0.6283783781599586,-0.4702818911817483,1.4072744520812537,1.1905156270663244,0.5980385865472341,-0.9435028705407036,-1.3601459642524902,2.145417267878347,1.1705414943015622,1.562584503735419,0.8009887361048069,1.0,0.0712470499879101,1.6119871126706051,0.7799673017919746,2.948629198155853,-0.1388910999634632,93.21645313553609,2.0
0.1599339834259351,-0.4499503193623119,0.341971497563437,-0.1931470704763915,-0.5665607383525697,-0.9874543246685442,0.2669764733642064,0.2493809424992519,-0.7228407769663204,-0.7487165830883364,-0.3014145854813453,-0.1066740079232367,-0.06543732881968539,-0.8065687014735438,-0.9917108095619458,0.4861023424870347,-0.0878298288392992,0.6901525259546749,0.3417045479105042,-0.3093495838154437,0.6407725971591586,0.09348782047602648,-0.8084935019629155,-0.1098762105940659,-1.0115343467380704,-0.9832097528371282,0.0712470499879101,-0.7008952322284893,-1.006032326531426,-1.459021459028845,0.1374844187376153,84.57142857142857,0.0
0.4633351446936228,-0.4832651310631246,0.5260572022107997,0.0530782201825306,-0.4324475409507745,1.1396525272390101,1.316657940563443,1.4720728992858494,1.2382121231768928,1.2642797006990838,-0.2300812876843562,-0.0543760243889828,-0.08818786183773182,1.3099230832439372,1.8294882233583774,-0.3561804499205002,1.2543425765944178,1.2663643850946515,0.8353917483469342,0.9402552435604916,0.5751354237130212,1.9002370226576426,1.32093658755754,0.7604751665211245,2.1603810482369648,1.0134483276094328,0.0712470499879101,1.199537783037698,2.1071499874430337,0.8084127599793379,-0.0986848562913329,98.06639912440716,2.0
-2.227837641307243,-0.947988651083745,-1.9078343100759203,-2.174238201611221,-0.916471191422543,1.0406424465787332,3.7885530672735777,3.1180359748460784,3.5014107951031503,3.417529770430808,-0.3397839938959249,-0.1041834714689279,-0.09021767617948863,4.220115429947985,1.4697030385353314,0.5797447916028629,6.132141892869938,3.642376746867938,2.160637368353256,0.85549332966096,-0.0371589767667904,2.1713444302856586,4.038211267388292,7.580190704070555,-0.5584035760273511,-1.0128575726927371,-14.0356688476182,3.365820143889028,-0.1791088175183146,-0.9073110461929657,1.7559495842057828,100.75801749271136,0.0
0.7758174351836015,0.4272674373403475,0.8207581513222187,1.5332589011662845,1.14393992594025,0.5320580522082815,-0.4514939930146439,-0.2960081042595942,0.1399423336370646,0.1552360706460007,0.8415108268727436,0.4488330813834811,0.0907072492915229,1.2458541665084513,-0.9913959928821482,-0.3902425068940058,-0.3897860355343121,-0.6144522135169809,-0.6231046221340218,1.415069738424222,-1.375061147087775,0.0563788050956046,1.1769289205247562,-0.1504669562527662,-1.0115343467380704,1.0,0.0712470499879101,0.1703811845768331,-1.005760024714203,2.4157830659252815,-0.140640161211085,90.42386185243328,2.0
-0.2505253700571135,-0.6149089037639127,-0.0385933776274542,-0.5637108791778703,-0.670202876798088,0.5727951082757299,-0.5225546564205366,-0.4227779886524995,0.1576606011757279,0.1731995498812658,-0.2554427763351191,-0.0958570870839385,-0.0895804632759112,-0.2283178530879316,1.0333219709204853,-0.4514705424579184,-0.418936087136084,-0.4904810534692195,-0.5177243342661385,0.0669762990767926,0.8959819757990878,0.0247574595643166,-0.2196646330108367,-0.2452792920669088,1.2541195068155262,1.0,0.0712470499879101,0.1885560896833047,1.2263991334185185,-0.1867887198604244,-0.1300774350322471,82.08550573514077,2.0
0.7724190042286883,0.7371197951311831,0.7996037871201422,0.6260592089606571,0.0265101164549656,-1.789334963203603,0.138969848619747,-0.9972879694108971,-1.360794540467068,-1.3980143549518085,-0.250134718126443,-0.1057116161260725,-0.0928472182362215,-0.9176189929671004,-0.9913959928821482,-0.4964113832621717,-0.4904546997941665,-0.4502476146113536,0.6330661140778894,-0.2425689881498146,-0.4178530055576487,-2.730381163582983,-0.9233872408872504,-0.2825595945284095,-1.0115343467380704,-1.0,0.0712470499879101,-1.4340977750189383,-1.005760024714203,-1.1917105675418642,-0.1250624631743754,68.48407643312102,0.0
0.4030998179842479,-0.30249474146137,0.3350981098681495,0.0936802021305551,-0.2004013059500363,0.7898289576712078,0.0808546524410948,1.4499350551932246,0.8769906303361797,0.8711212147710531,-0.1629809753651951,-0.1010369856385426,-0.08149641419692193,-0.8532296283227256,2.665227823273803,0.9341145949963297,-0.3415495722509633,-0.5688437418283759,-0.6362695646216185,-0.3467068901167504,0.0391547795917285,0.9756669909769804,-0.8555175988330739,0.192107943468562,-0.3318381906719914,0.9885041216035055,0.0712470499879101,-0.3064690194049875,-0.3281567181987384,-0.5429338158965611,-0.1097284657889638,112.43921568627452,2.0
-1.920340694020314,-0.8173972483535645,-1.650776732953718,-1.92165453819866,-0.8436041468896281,-0.5326887339197943,2.1690333750649944,1.4732572846516903,0.534136346761457,0.5569863385865277,-0.3328031017755822,-0.1070768909129279,-0.09264667073374801,-0.0728479297710011,-0.28914034065553496,-0.4150558541340501,2.5414387118673245,0.9362305646351268,0.2524595146195807,-0.383046644507489,0.3066550522517523,1.4348945654283936,-0.0780180398007048,0.6832102691636661,-0.5584035760273511,-1.019466693310262,0.0712470499879101,0.517183164702915,-0.23647725941903214,-1.611307323452797,2.282708910528334,101.94690265486726,0.0
-0.2131718375764641,-0.5761248331566458,-0.1064013059788913,-0.493418529541244,-0.5177462370312614,0.1247340227125751,-0.740469881814573,-0.7913752521925869,-0.1954976355718634,-0.1864445947502003,-0.3009501229961617,-0.0997854949220556,-0.090514354517223,0.1337446475943722,1.0333219709204853,-0.4633872248122431,-0.4904396506793478,-0.7979409513120906,-0.7977690507185135,-0.5306680294929744,-0.6025320669584877,-1.4383165263624111,0.1630916631206866,-0.2664225320549713,1.2541195068155262,1.0,0.0712470499879101,-0.1769447859074695,1.2263991334185185,-0.438620254748882,-0.1356166350072624,80.56648308418568,2.0
0.0998805225811518,0.802260715499168,-0.0748122133067669,1.4621582838067375,1.904297570050982,0.6282372700609423,3.064771956623074,2.61139185007633,2.548283769031403,2.514936486335982,0.5504703472018032,-0.0075772492957542,0.03226180921320783,-0.4348779466714609,-0.7470581699482481,1.7541575297013663,3.9260354564257063,3.05386927532962,2.817045881690216,1.094191469830125,-1.1843115517173362,0.6782664831072605,-0.4467129435654877,1.239347552406237,-1.0115343467380704,-0.9844960301265395,0.0712470499879101,2.3598324293470623,-0.7527936593644674,1.2373096971823814,-0.0841918186384184,100.15538290788014,0.0
-0.3826112368470374,-0.8537084667942711,-0.0663362222628373,-0.7122704866506022,-0.8301590454876345,-0.3308220356616245,-1.0425997520575478,-0.9317518672365024,-0.541508852302328,-0.542134774671523,-0.3201035956143421,-0.0995537980027844,-0.090363336692731,1.0331332205701984,1.0333219709204853,-0.5266647183150927,-0.5264087139729186,-0.8581377039297423,-0.8529612417547663,0.14464585326438,0.4939599118249211,1.4440100718313744,1.0951934874770275,-0.2847960572875557,1.2541195068155262,1.0,0.0712470499879101,-0.5418306713534592,1.2263991334185185,-0.4209250281324625,-0.140816339377988,79.79220779220779,2.0
2.4821502344667805,1.5237725448241013,2.1047283408465685,2.4747291448237276,1.106476062988464,1.263063982379289,1.8433877697842531,1.0634675325974843,1.1463519240103306,1.1743082111557472,0.0493754661582262,-0.0667616708365802,-0.04696171017268252,-0.4675761407964361,-1.004772909702932,0.0236891338606869,1.6146793468728553,1.216769639329314,0.7882456150361259,0.0398241941174731,0.0513627063494079,0.9608693798017082,-0.4631381921256037,0.0057951254198769075,-1.0115343467380704,1.0022537391372301,0.0712470499879101,2.1557730323550057,-1.0151950542399224,0.6298132265008586,-0.0751293947720276,95.48845470692716,2.0
1.8829390628081373,0.6882837685540045,1.4320622953098332,1.5018981135169809,0.5247558465504509,0.6463494971246667,-0.8369908047002786,-0.5923302195552477,0.1743814629704375,0.1901441259544721,0.2890065910212382,-0.0553150991821904,-0.0814837888669192,-0.5945067097031069,-0.5864524001216215,-0.5067851348656605,-0.5101375912497683,-0.75300473732724,-0.7748669940887921,0.5171810949515282,-0.0728555831119815,0.451189400003167,-0.5975771464790257,-0.2819745947766239,-0.5584035760273511,1.0,0.0712470499879101,0.205692334118571,-0.559328193087658,0.7963770039160407,-0.1405411898958017,85.37745604963806,2.0
-0.1895584832029818,-0.3588418040372854,-0.1864246331877564,-0.4069608254462138,-0.3334334901737817,0.7701416232083517,-0.0560584318382808,0.75012121064913,0.5393786999513467,0.5554308112737467,-0.2389773804207904,-0.0850134158957096,-0.08534444272070775,0.2012590686753145,1.8562524691851023,0.3016384756922112,-0.2521937921868489,-0.2299828021029414,-0.3299060083349221,-0.5134001290950971,0.5969676941615976,1.0253956761379137,0.2045057093967705,-0.16183526112099472,2.1603810482369648,1.000622117863423,0.0712470499879101,0.5793447828523463,2.1329825672945164,0.2355491242323776,-0.1259856951785336,93.75381485249235,2.0
1.7967819124501476,0.819728744783726,1.260868644267103,1.951645216807208,1.251061575552616,1.109574311526588,-0.7348409361250237,-0.472347260979663,0.5227804189173523,0.541521792561366,1.4523443886613394,0.0198116596550878,-0.0705773279687137,-0.6729532229515166,-0.5864524001216215,-0.5003814461722479,-0.5097711884804831,-0.6105279881125668,-0.5686962796085888,-0.1131298097076977,-0.3568786707092189,-0.2724182158637862,-0.6756928435305688,-0.2824706315102322,-0.5584035760273511,1.0,0.0712470499879101,0.559356847912066,-0.559328193087658,1.4027580991312494,-0.1407813821644285,82.55899318300996,2.0
0.1310644903771775,-0.2991854596199837,0.3111658998617599,0.4738623967347843,0.2989930006471267,1.472145375002541,1.171264781683924,1.5320236831831129,1.4636675184845906,1.4749357095759652,-0.0652597404997195,-0.0172270232208771,-0.0507930593285631,0.6640365701234141,0.2234347853994319,0.4494753807685659,1.1520070763960542,0.7128617905198945,0.4965441889016391,-1.2577228447337454,-1.3479860053234942,1.288784167254679,0.6663247522042465,0.9605415389730249,0.3478579653940876,1.0,0.0712470499879101,1.483549737698988,0.3335354701654303,1.1680819003570226,-0.117293290109499,111.53526970954356,2.0
0.0473669815239652,-0.230990287802888,0.1023644902375605,0.2150281295983071,0.1725144588153079,1.2038657804369068,0.5378010337880785,0.709899505301841,0.9265386313643371,0.9267291425426687,-0.0366442376105687,-0.0554047249523557,-0.05440083154446463,-0.0951727278523452,-0.9868394358161222,0.7992825889212343,-0.0229027535644151,0.0263369433089616,-0.1029680538322984,-0.3810771673195254,-0.4230461422917666,0.8454081464191469,-0.1125899303437855,-0.07725969824926691,-1.0115343467380704,1.0041481487322041,0.0712470499879101,0.924818234813663,-1.0187066464840664,0.7952172595931885,-0.1287574044982677,105.49450549450547,2.0
0.3531544130933701,1.1084249816416034,0.3224553501177503,1.7434893358978272,1.8802112451775612,-0.04646263857719527,-0.2132182680129657,0.1781567920584131,-0.18278656179920788,-0.17742363727712984,2.012314598331642,0.2055642809516869,-0.04987218527342515,-0.3108919683530142,1.5769249398670768,-0.1892357591880873,-0.3634462795901336,-0.3376380371207574,-0.4767154253022759,-0.7560065576586448,-1.9774746518326256,0.689855462813554,-0.308581468234701,-0.21682132957099381,0.3478579653940876,1.0039648004835853,0.0712470499879101,0.0089182427267728,-0.041373553586345715,2.020033450778388,-0.1402857987322309,116.93311582381727,2.0
1.416718495372136,-0.3224702769984153,1.625656779825806,0.9572873218133532,-0.341743778980039,0.017712123717583957,-1.022559249973556,-0.8728171493386534,-0.29709256790958427,-0.2635233559387461,-0.1796709001339522,-0.1044142651396685,-0.08918248125435148,-0.9574127446028186,1.4443914340263857,-0.5272171537087087,-0.5253948404766824,-0.8371053064476337,-0.8410494972495306,-0.2261788207108742,0.3891901722878226,1.2360966368911488,-0.9624109551679412,-0.2881645825201268,1.7072502775262457,1.0056429747160198,0.0712470499879101,-0.3055938277669495,1.67832328971527,-0.9434447399597576,-0.1403512848510337,85.35591426303255,2.0
0.8639220422068626,-0.3142147672037619,0.9339731745518504,0.3782982096281865,-0.4116042556115031,1.1705564160632482,0.189295539352395,0.6999112472352477,0.7748627276463843,0.7937889214170516,-0.2657397452688994,-0.0876521458794552,-0.0907592790751622,0.4283563668622792,1.438265563681012,0.1994714032017994,-0.0655683555240916,-0.222666660678034,-0.3358955605106402,-0.5770963868499456,0.9346202129336718,1.4315758210215612,0.4582154203115777,0.0120173828215462,1.7072502775262457,1.0,0.0712470499879101,0.8113009777587128,1.6728309650450623,0.1540474323659472,-0.1126843597056549,90.913190529876,2.0
-1.9319389714198452,-0.4954953404593822,-1.813708073399004,-1.8475094457494472,-0.5960859107780531,-0.8147915016672954,-0.9562634621592864,-0.956346612411034,-0.8832589104720354,-0.896766850303751,-0.2814644962381019,-0.1079912249761861,-0.0935051891774136,-1.053063052464673,0.6283783781599586,-0.5273413832861812,-0.5259175929550634,-0.7391485364958202,-0.7480684568437117,-0.4122464706197168,1.0052139387942025,-0.6850513692809059,-1.06058851848085,-0.2857959831324281,0.8009887361048069,-1.0,0.0712470499879101,-0.9090644271820588,0.7799673017919746,-2.1783037452890612,-0.1382651517468609,78.30588235294118,0.0
1.2446942220451471,0.1520486914188792,1.2827352766241316,1.3062164977980015,0.4210461447813045,-1.2914661529373703,0.4098436360910024,0.19151029683619622,-0.9324111066941232,-0.9534370607663599,-0.0780962505802716,-0.0143509331600663,-0.07072651077039879,0.771569568343627,-0.989938585863899,0.183485598203344,-0.1381979113333247,0.9430657185491604,0.7250678777111964,0.1152491164901532,-0.9514231092635628,0.2698507049011595,0.6829345194856916,-0.10294244980744072,-1.0115343467380704,-1.0022444722513923,0.0712470499879101,-0.789515627055415,-1.0085573899946143,1.1894509247952598,-0.1356409845111977,85.54720133667502,0.0
0.6564384541488387,-0.4990677104338843,0.7940124821037685,0.1866040480089469,-0.5191988484892657,1.319291841844254,1.486848127208911,1.6266540039814,1.5541776248880814,1.5635738721083292,-0.2177813787017691,-0.0889755012627716,-0.0899278543666465,-0.169563848269106,1.0333219709204853,-0.3300867255255792,1.357657175477606,1.359921709628479,0.7576000780380683,1.0921294254730949,0.7323404021606997,2.0798781983191796,-0.1525130925142993,0.4638762609009887,1.2541195068155262,1.0,0.0712470499879101,1.5701834253139242,1.2263991334185185,0.1092394412615603,-0.0178166753248084,90.40612124779284,2.0
0.7758174351836015,0.4272674373403475,0.8207581513222187,1.5332589011662845,1.14393992594025,0.5451760714826116,-0.4514939930146439,-0.25225685960275757,0.16794460970407155,0.16425322116131777,0.8415108268727436,0.4488330813834811,0.07157167636630533,1.2458541665084513,-0.9921766439810269,-0.3902425068940058,-0.3897860355343121,-0.6144522135169809,-0.6231046221340218,1.415069738424222,-1.375061147087775,0.07751551255556348,1.1769289205247562,-0.17140801672581715,-1.0115343467380704,1.0003702854217336,0.0712470499879101,0.1703811845768331,-0.9895992209055648,2.4157830659252815,-0.140640161211085,90.42386185243328,2.0
0.5189631398074026,-0.4460756553722267,0.5996701160250961,0.1197603073234467,-0.4186646229306404,1.4738903235678071,1.357318404466365,1.686049925708626,1.5818097243066658,1.590595213078327,-0.2075769843776609,-0.0856978461719139,-0.0808813553679658,-0.1084680445846874,2.653096341962592,0.196272158600069,1.1180042061308315,0.4929228820182129,0.0581054545086691,1.3820130876848369,0.7001380168506218,2.0199271224701953,-0.1058667067065522,0.4101077872273796,-0.3318381906719914,1.0,0.0712470499879101,1.5965554431565605,-0.336112277274386,0.2153158935608444,-0.0487819311189301,111.56420233463037,2.0
-0.0807547694484036,0.8106196699746974,-0.1994947538311269,0.3267307289058781,0.5989065942322999,1.9466902427319466,3.4876946425546813,2.628090191191508,3.3241220443781327,3.2796008395171077,-0.1589779797361006,-0.0753718867353531,-0.08746164512175433,-0.045861302320748,-0.2667254265417522,0.8716833415853008,5.281975270735357,2.7259235067300693,2.1729531111343054,1.1906986503897514,0.1268828419003877,0.9139877426426617,-0.0327455282748286,1.5650531172246038,0.3478579653940876,-1.0063914990714005,0.0712470499879101,3.102622383796945,-0.2362291651989987,0.4712148117992396,0.0836803995843426,103.40532959326788,0.0
3.371362855437918,0.3399278828433352,3.155145802362134,2.6537873877079816,0.3345988721991398,1.3067534047631622,1.287513364492145,1.5374524938177687,1.4132912404815197,1.425515596515922,0.059241506301624,0.007707426347849,-0.0258740175172697,0.4780586743854985,1.8432091564415387,0.4618338610277953,1.0887535699931157,0.9109793903139056,0.4100808634418847,1.484336290146864,0.71047644032646,1.502054929867531,0.4951962560641835,0.7894095644799384,2.1603810482369648,1.0,0.0712470499879101,1.435163462497385,2.1192627966716073,1.3344733570224632,-0.1230623617399372,95.3191489361702,2.0
1.397294601578775,-0.4742583863248335,1.5747652201544804,0.8358046830584478,-0.445791297367326,-1.519793415698104,0.767149109695746,-0.9389393700774462,-0.912311235903178,-0.9270695761614912,-0.2592894036310479,-0.1038957420522988,-0.0929146496676053,-0.7559048768190497,-0.9913959928821482,0.3230563398512321,0.5848400784890341,-0.3116045427225182,1.514484138673746,1.0508637727165069,0.4331784797369148,-2.5208241614301636,-0.7562271120437453,-0.1129373888444836,-1.0115343467380704,-1.0,0.0712470499879101,-0.9406050209849988,-1.005760024714203,-0.8647607001098818,0.1569187309201203,71.29973474801061,0.0
0.9470667144863965,-0.2018548544761892,1.117595904898494,0.5719322137824348,-0.342993700467159,-0.3170738662070317,-0.7690409400645148,-0.8017937360381794,-0.5158374672546214,-0.5156302150265096,-0.2497675418910906,-0.0974413538514989,-0.0837439925495153,-0.3804799826268111,-0.9913959928821482,-0.4684560946617161,-0.5033955135558672,-0.7705174889390496,-0.7729279063806521,0.6389601100141892,0.585035031315773,-0.909444260372557,-0.3839256608390891,-0.2783379043755787,-1.0115343467380704,1.0,0.0712470499879101,-0.5145227676178009,-1.005760024714203,-0.2776055160956484,-0.1382101425014723,88.46073298429319,2.0
-0.1652336109350848,-0.320719615774117,-0.1299061550923096,-0.3674904183102776,-0.3375548529150963,1.206593173682403,1.2656128919174885,1.6862775042989457,1.2990649286267153,1.3353639316307526,-0.2243826876794742,-0.091109387724009,-0.07115519202355075,-0.2266439371013852,1.7988399728435944,-0.2063791933413168,1.1210123569918462,0.9140643549330992,0.689405600518659,1.712964218771064,0.8164325108760331,1.170630929124005,-0.209881652717731,0.5538053590666223,-0.3318381906719914,1.0107009097934332,0.0712470499879101,1.2621837399360734,-0.11708436278657568,0.0302381090309125,-0.0202193498025825,111.15449343655337,2.0
-0.2852910662619541,-0.6106603179991875,-0.1252764120851212,-0.5469527950559917,-0.5669661182943383,0.9088956901110832,-0.5741363259058179,-0.3131740067774852,0.3953466586065975,0.413368667212158,-0.2920135806513212,-0.0992692171990381,-0.0913951741755641,-0.0104968964326577,1.0333219709204853,-0.4444669598347353,-0.4847984589692729,0.3047293588444666,0.5872900747739447,-0.5576644577162432,0.2289333860307009,-0.3509283529179354,-0.0155231243233125,-0.2660221455985772,1.2541195068155262,1.0,0.0712470499879101,0.4307411906580065,1.2263991334185185,-0.3997938666563529,-0.1351384330948735,82.4941053183128,2.0
0.5506839175798048,-0.2343312920830035,0.6022342813829236,0.4948504152732787,0.04921139319401,1.2347732576203112,0.1842222836053196,0.6989249361526485,0.894696968526248,0.8979185031735528,-0.1435559928241834,-0.0526249211033872,-0.055351139387287286,0.4461279265621113,-1.0204857577273514,-0.2918970857551969,-0.1957956122588697,-0.088739812291654,-0.1956811053047736,-0.7663819001681277,-0.4880338546409337,0.8509339693860708,0.4122901935952132,-0.09377203292560975,-1.0115343467380704,1.0033249805921254,0.0712470499879101,0.930101003750702,-1.0145726323708169,0.8303104504300585,-0.1333360733548096,99.59966168593178,2.0
0.5348277514318823,-0.1267844316090686,0.5731737406608791,0.1573447564392358,-0.3464056483103785,-0.9100912155876368,0.5209583302291209,0.5776546562463128,-0.5981414807681701,-0.6006713761595954,-0.1627186623099638,-0.1030181181085854,-0.0926556132540896,-0.9231945428953516,0.6283783781599586,0.6384226557864349,0.2802792236971166,0.4388639698443143,0.5001305912031159,0.5512478523452066,0.4373971463310172,-0.4558116027591515,-0.9272845022989818,-0.2161132125517593,0.8009887361048069,-1.0,0.0712470499879101,-0.6022093820325205,0.7799673017919746,-0.7491401340305829,0.0419955083999713,67.26114649681529,0.0
3.371362855437918,0.3399278828433352,3.155145802362134,2.6537873877079816,0.3345988721991398,1.3230022077900485,1.287513364492145,1.4063421921261294,1.2707410789460427,1.2836980084672607,0.059241506301624,0.007707426347849,-0.07271567562804895,0.4780586743854985,1.825734953583804,0.4618338610277953,1.0887535699931157,0.9109793903139056,0.4100808634418847,1.484336290146864,0.71047644032646,1.4365533951635694,0.4951962560641835,0.21245205303102457,2.1603810482369648,1.0034423406108148,0.0712470499879101,1.435163462497385,2.138060992862377,1.3344733570224632,-0.1230623617399372,95.3191489361702,2.0
0.6564384541488387,-0.4990677104338843,0.7940124821037685,0.1866040480089469,-0.5191988484892657,1.3261607409964873,1.486848127208911,1.5291659500263515,1.3861064900606193,1.4063245370478354,-0.2177813787017691,-0.0889755012627716,-0.08925864229459476,-0.169563848269106,1.2205875966436017,-0.3300867255255792,1.357657175477606,1.359921709628479,0.7576000780380683,1.0921294254730949,0.7323404021606997,1.883062837135149,-0.1525130925142993,0.5155294833751478,1.2541195068155262,0.9973127570333788,0.0712470499879101,1.5701834253139242,1.4388847328551482,0.1092394412615603,-0.0178166753248084,90.40612124779284,2.0
0.4706543386200122,-0.0969128780053465,0.4650158213314072,0.2297655444128853,-0.1530056344249183,1.1562679549834174,0.9762285371692468,0.8254174938929638,0.8384921305982699,0.8895547780724986,0.0352790284649362,-0.0633368524354524,-0.0839629298825485,-0.3858095066672711,1.831873732561846,-0.1156953944988899,0.4622372881934664,0.6907015282291008,0.4870055745813926,0.6907840313121629,0.836741064347587,1.4235305790589938,-0.3796259616541894,-0.06460098209849818,2.1603810482369648,1.0032098878652265,0.0712470499879101,1.267570396233729,2.108520663179787,0.6839927533792112,-0.1128408678205121,100.27649769585254,2.0
-0.1985714723756069,-0.4612897270470873,-0.0278737418954255,-0.4628660096148607,-0.5539263968341134,0.881775395017496,-0.8301585596638181,-0.6345499286574047,0.346958124397769,0.3645956436410699,-0.2407289128105242,-0.099591814060684,-0.0900909283176322,-0.563187197515594,1.0333219709204853,-0.4775771889010379,-0.5114546679137347,-0.7913388184921764,-0.8006851709582599,0.2636294354349588,1.0482563092963206,-0.4405388567380655,-0.557919713305138,-0.2820583915694916,1.2541195068155262,1.0,0.0712470499879101,0.3816804036778169,1.2263991334185185,-0.4237974746137101,-0.138701406707716,83.52254641909815,2.0
-0.2355243219162057,-0.7082337632726863,8.278318644321084e-05,-0.5716857873773497,-0.7168891334251108,0.4438074925104987,-0.5969305272811961,-0.3476405554271689,0.0527898222039406,0.0667549062545735,-0.2994411815064394,-0.1011154395373395,-0.0917074043069258,-0.0660248395135092,1.8432091564415387,-0.344415084097886,-0.486085411262722,-0.7224040056573136,-0.7454357594713241,1.4601309139352758,0.8201783819170525,-0.2779609701602896,-0.0408227395464933,-0.2675706202893148,2.1603810482369648,1.0,0.0712470499879101,0.0807347090340083,2.1192627966716073,-0.5500293181966223,-0.1339419269425276,97.77084957131724,2.0
3.4136806084265165,-0.1815119713056418,3.426199448729145,2.565524552365096,-0.033182079970468,0.121909421860588,-0.8711231405713636,-0.7230845564754615,-0.2085323046952713,-0.199783654681096,0.112832871531132,-0.0952284471451545,-0.0910442121862044,-0.936743145954068,-0.5864524001216215,-0.4990413816040157,-0.5150121591401126,-0.7376103721721852,-0.754458156590217,0.8465059518103414,0.1361908791702158,0.0263118219599655,-0.9414086411542776,-0.2848353898423407,-0.5584035760273511,1.0,0.0712470499879101,-0.1905672206913575,-0.559328193087658,-0.1538220570804828,-0.1397721176357204,79.64739434793881,2.0
0.4427049163158917,-0.275135547481416,0.4578219129663912,0.7113314537287377,0.4576316845259252,0.8751222692546887,-0.6460675055289947,-0.4061749376074616,0.3608520488790442,0.3786062658208116,-0.2293338565612767,-0.0910819968781795,-0.0814605433141465,-0.189408368786463,1.438265563681012,-0.4962322536909281,-0.4783175089944267,-0.0701403278590291,-0.2575611819536127,-0.0254147087014433,-1.612071843456686,0.9621240314066956,-0.1830836546831478,-0.266660734625101,1.7072502775262457,1.0,0.0712470499879101,0.3957800131747482,1.6728309650450623,0.0313116485857617,-0.1373676444737356,87.6121337827327,2.0
-0.0807547694484036,0.8106196699746974,-0.1994947538311269,0.3267307289058781,0.5989065942322999,1.1632466202092644,3.4876946425546813,2.8764314574720187,2.8108459117807794,2.753309671663864,-0.1589779797361006,-0.0753718867353531,-0.07342510744190901,-0.045861302320748,1.2052833112060808,0.8716833415853008,5.281975270735357,2.7259235067300693,2.1729531111343054,1.1906986503897514,0.1268828419003877,1.4095888149986637,-0.0327455282748286,3.047774762039408,0.3478579653940876,0.20255044612992107,0.0712470499879101,3.102622383796945,1.411618678811015,0.4712148117992396,0.0836803995843426,103.40532959326788,0.0
0.1435730244814232,1.3281134547626,-0.1789814309685073,0.4292460184295895,0.7079875802298808,-1.0096605638215346,-0.5641758515909199,-0.6685199340197068,-0.98340082174988,-1.0013227210951443,0.0760784395787708,-0.0878964181985804,-0.092647736863585,-0.8081583785044306,-0.9913959928821482,-0.4380790812938612,-0.4596612018829907,-0.2434389675727231,-0.3507895630742793,0.0145324058220721,0.5289205961050564,-0.0974747489394429,-0.8119637915738859,-0.276758644687437,-1.0115343467380704,-1.0,0.0712470499879101,-1.0179994951458278,-1.005760024714203,0.1459924206568079,-0.1367617110068078,72.0,0.0
0.1444544423146883,2.804135541228902,-0.2101075493399127,2.2137394970927966,2.9750073412474296,-0.0509979832136073,-0.9897423551090352,-0.8505153435416928,-0.3392281359920425,-0.3337907917520925,3.147828511743958,0.0343366514062156,-0.0768401223593758,-0.8638726317827033,-0.9913959928821482,-0.524461518677498,-0.524146056297498,-0.7890146791992859,-0.7911800845780187,0.087481636268169,-1.938337401294836,0.3911998251797058,-0.871544724420073,-0.2854691187771293,-1.0115343467380704,1.0,0.0712470499879101,-0.3276860699144283,-1.005760024714203,1.4766746577095389,-0.1409288971275138,78.40837696335079,2.0
0.0382016316324622,0.1021357894590844,0.0301404993254205,-0.0474433422913109,-0.0880772804183061,0.7331209712812939,0.714150492390396,1.0289032320680431,0.6716101101533657,0.6906580747481932,-0.2538036852278826,-0.0899051629238099,-0.0855765891617699,0.1116338994626391,2.2481527492020654,0.2041634958105378,0.219171418999735,0.1724008078193908,0.0251219541357846,-0.6587597199173355,0.7396615314631182,1.277118463660601,0.1331902648029949,0.0978766205260247,-0.5584035760273511,1.0,0.0712470499879101,0.7084989301183229,-0.559328193087658,0.0759266289899728,-0.089776574085864,102.4,2.0
0.1310644903771775,-0.2991854596199837,0.3111658998617599,0.4738623967347843,0.2989930006471267,1.2343046510477549,1.171264781683924,1.6419916691083805,1.3245065753649004,1.3224514431084589,-0.0652597404997195,-0.0172270232208771,-0.06910523142393622,0.6640365701234141,1.7481546209371028,0.4494753807685659,1.1520070763960542,0.7128617905198945,0.4965441889016391,-1.2577228447337454,-1.3479860053234942,1.1624895145820735,0.6663247522042465,0.5652861980138101,0.3478579653940876,0.9955168348446327,0.0712470499879101,1.483549737698988,-0.08413500709201666,1.1680819003570226,-0.117293290109499,111.53526970954356,2.0
-0.2077294662390185,-0.4278881841035832,-0.0970705931490192,-0.3820122950654104,-0.3869098608254295,0.6848102519478291,0.2298150808023177,0.17625330970557643,0.3741832867811574,0.34092354375048284,-0.2564012622203065,-0.0947664346048237,-0.07285681238944239,-0.1502634239295972,2.265704403596739,1.1917093740402336,-0.2598574653411791,-0.3776136325630907,-0.4028915019638714,0.0783964247249583,0.4363266177446041,0.14768021443909146,-0.1336082413914985,-0.20750903984228714,-0.5584035760273511,1.006821987598279,0.0712470499879101,0.704952525972364,-0.5434282514496753,-0.1305593492872596,-0.1162207576212688,101.67887323943664,2.0
3.371362855437918,0.3399278828433352,3.155145802362134,2.6537873877079816,0.3345988721991398,1.160217731079931,1.287513364492145,1.6491582126605253,1.4253257418133454,1.4504431929721833,0.059241506301624,0.007707426347849,-0.049743865642067654,0.4780586743854985,1.5369997471343193,0.4618338610277953,1.0887535699931157,0.9109793903139056,0.4100808634418847,1.484336290146864,0.71047644032646,1.7606846012370607,0.4951962560641835,0.8986810613078651,2.1603810482369648,0.984578615119407,0.0712470499879101,1.435163462497385,1.767026289845706,1.3344733570224632,-0.1230623617399372,95.3191489361702,2.0
0.3531544130933701,1.1084249816416034,0.3224553501177503,1.7434893358978272,1.8802112451775612,0.032923180926124486,-0.2132182680129657,0.08744364262577116,-0.161281994863986,-0.13736090369073542,2.012314598331642,0.2055642809516869,-0.038194793093522215,-0.3108919683530142,1.1886649370040077,-0.1892357591880873,-0.3634462795901336,-0.3376380371207574,-0.4767154253022759,-0.7560065576586448,-1.9774746518326256,0.7191658370140241,-0.308581468234701,-0.26317866918770194,0.3478579653940876,0.9934943154130599,0.0712470499879101,0.0089182427267728,0.06679009262322287,2.020033450778388,-0.1402857987322309,116.93311582381727,2.0
-0.0533608578187485,0.4748696209667402,-0.1641662533455042,-0.1090602850352605,0.0189768058704315,-1.1792482212861586,0.3877985109412515,0.6524250276847092,-0.8433173113262263,-0.8551462394243626,0.0686462699636585,-0.0894782379269957,-0.090063827579026,-0.8269629453218833,-0.9913959928821482,0.1070443039122302,-0.1913280345808241,0.7212306670305658,0.6427769612272585,0.3815024908350221,0.950631660576886,0.2249574789412432,-0.8297414431434686,-0.2434548123433774,-1.0115343467380704,-1.0,0.0712470499879101,-0.8657851790019901,-1.005760024714203,0.0914245958373161,-0.1184295291425832,65.98281697474616,0.0
0.0369105811750324,-0.1983381161466291,0.1226285192459469,-0.078184458019709,-0.2143531322792407,0.8146013151929792,-0.9271892504923244,-0.7165737581670912,0.2914792518736993,0.3086000781692414,-0.1800437418333908,-0.0858751256875042,-0.0877146905822091,-0.2689297396488448,0.6283783781599586,-0.516307143642705,-0.5161415584475316,-0.8103357277206604,-0.8179113750521173,-1.2335395927346915,0.6926841275933129,-0.1826918514853713,-0.2528824918959412,-0.2817685924763147,0.8009887361048069,1.0,0.0712470499879101,0.3252781961564014,0.7799673017919746,0.209976980037798,-0.1403217965820656,74.0,2.0
-1.5454931510427736,1.3743664530533282,-1.659395177628638,-0.6903125468446036,0.7084943051570917,-0.3599929642504074,1.810666349534524,1.3405125348073903,0.5697136088850433,0.5886134450786836,-0.1817831868788481,-0.0883097226406007,-0.0919157254619229,-0.3441552024357022,-0.1815088073610948,-0.2386463598029632,1.8787719698794532,1.144186628218401,0.6423698630066749,1.017586191542071,-0.7949135382307438,1.0511728514350245,-0.3398102530417546,0.4975395872420056,-0.1052728053166317,-1.0,0.0712470499879101,0.6065120201826829,-0.1128963614611138,0.1321457145986588,0.0110949149552852,99.35018050541515,0.0
0.8657166879679361,-0.1887255486133461,0.8759945467387518,0.4586669635438846,-0.2558370129868992,-0.8395347187181064,0.0612040247342747,-0.2195959807193808,-0.719386604327131,-0.7262995381866747,-0.2392975707953998,-0.1023378818014137,-0.0920163864597551,-0.7322861335241534,0.2234347853994319,-0.1616608684766709,-0.2025092387390438,-0.2677056504401394,0.043367723297712,-0.7482638931780062,0.3818655694676524,-1.2394055405302606,-0.731057160108538,-0.2321490315198701,0.3478579653940876,-1.0,0.0712470499879101,-0.7321076656816526,0.3335354701654303,-0.6711971762258551,-0.0752199749489428,70.1095461658842,0.0
0.4977500745064281,0.3780078283006563,0.267147727885722,0.4915904021241672,0.3629754681229454,-0.2556269712576973,1.298336728279022,1.1866613943489654,0.2835887224960916,0.3006294595446912,0.0284786266910674,-0.0807018467548001,-0.0886683986662294,-0.6488054596626943,-0.9913959928821482,0.4993460275682442,0.7654318525051935,2.4424275505980426,1.7091362081109471,-0.736140359794997,0.6120236590251548,-0.2992608165693525,-0.6612704689466119,-0.0276536605405467,-1.0115343467380704,-1.0,0.0712470499879101,0.3172430536653467,-1.005760024714203,0.3509519228125241,-0.0814524032731957,74.03598971722366,0.0
-2.353946109517205,0.3339906543314356,-2.2107975697847833,-1.495616621447425,0.2218019034020129,-0.4769916747699543,0.4094200886842099,0.3085768963661131,-0.3556698421170807,-0.35440830326036626,-0.0609429842923641,-0.0872969166932576,-0.09035449309688394,-0.6450341117450689,-0.10748792542886627,-0.3458904597094358,-0.2241179261263418,-0.1057074018364706,0.0895077506627771,3.4606631373052665,-1.985762902301165,-0.7002726849787969,-0.646913126865413,-0.2712379213127861,-0.5584035760273511,-0.6870071760959537,0.0712470499879101,-0.3509519635055181,-0.5288350125768663,0.1655960905447698,-0.1226986711923626,109.02208201892743,0.0
-1.5454931510427736,1.3743664530533282,-1.659395177628638,-0.6903125468446036,0.7084943051570917,-0.3764931133692144,1.810666349534524,1.935706551862134,1.022176662678275,1.0269700135358517,-0.1817831868788481,-0.0883097226406007,-0.09202635927734837,-0.3441552024357022,-0.7987471805172361,-0.2386463598029632,1.8787719698794532,1.144186628218401,0.6423698630066749,1.017586191542071,-0.7949135382307438,1.6307259293424572,-0.3398102530417546,0.40804718028543585,-0.1052728053166317,-0.9886453213727404,0.0712470499879101,0.6065120201826829,-0.78162124623137,0.1321457145986588,0.0110949149552852,99.35018050541515,0.0
0.4568770472352652,-0.228484940979929,0.5502387060714224,0.2284992583136437,-0.2354328892512105,-1.325156978638047,0.7263366801625111,-0.4409298645308909,-0.7961146079748963,-0.8060188936736399,0.0066958055180558,-0.0806753658870419,-0.0875702514644335,-0.6198980831544104,-0.5864524001216215,-0.2062134571126177,0.2102722147416421,0.2499944036665808,1.1003990088857318,0.2777221084875049,0.6182462928624703,-1.406269272678648,-0.6186872367209144,-0.129698637652424,-0.5584035760273511,-1.0,0.0712470499879101,-0.8147618147972933,-0.559328193087658,0.3516043213996879,-0.1070368079206259,68.80632411067194,0.0
-0.1530370552559163,-0.392713728399474,0.046985641190037,-0.2913515988111952,-0.4098813908589863,0.6517723199664518,-0.7473942457689763,-0.5903518276615415,0.1861964644026533,0.2021127053181034,-0.1908029359461525,-0.0960192827978183,-0.0914236248614438,-0.5985637224200557,0.6283783781599586,-0.4639330216184119,-0.4924164880255099,-0.7186957219304718,-0.7407236194448938,-0.2187567859778356,0.1070637976834875,-0.4825310583973138,-0.5954300885422236,-0.2780973613794893,0.8009887361048069,1.0,0.0712470499879101,0.2177917566535605,0.7799673017919746,-0.1955562738117041,-0.1374028219830262,72.50983477576712,2.0
0.4427049163158917,-0.275135547481416,0.4578219129663912,0.7113314537287377,0.4576316845259252,1.0416093365462935,-0.6460675055289947,-0.30585013178880127,0.49091624394879946,0.4938444301820223,-0.2293338565612767,-0.0910819968781795,-0.09143456957467472,-0.189408368786463,1.439001182413237,-0.4962322536909281,-0.4783175089944267,-0.0701403278590291,-0.2575611819536127,-0.0254147087014433,-1.612071843456686,0.636032919907519,-0.1830836546831478,-0.2825569682206357,1.7072502775262457,1.0013743629019105,0.0712470499879101,0.3957800131747482,1.6744244013609706,0.0313116485857617,-0.1373676444737356,87.6121337827327,2.0
-0.0476736396907851,-0.2803130742875556,0.0362303920502607,-0.2831072680374092,-0.3893421404760414,0.9259598437614023,-0.0171878369014741,0.3532750193800138,0.5390334986679826,0.5440400977752832,-0.1608100448278477,-0.0847007918711269,-0.08713164793486668,-0.31647800815213,1.1214194074227597,-0.1149491227326766,-0.3323398771710246,0.4585904547458516,0.3060551067571959,-1.021312733643307,0.8405266132757265,1.3353820431586516,-0.3169342934131356,-0.18778117966950136,1.2541195068155262,1.0033987780224995,0.0712470499879101,0.5328654377870571,1.2883465445880424,0.2445972826728192,-0.1304839832581157,85.27918781725889,2.0
-0.257134540704339,-0.4270541726580204,-0.0892000300367988,-0.3877240536407131,-0.401537320390915,0.4262466317152445,-0.5965758064988017,-0.4934720748073571,0.0400864737455991,0.05384083768992,-0.2108048560017307,-0.0962088965546533,-0.0896067133089789,-0.5316833974868471,0.6283783781599586,-0.4706344778274482,-0.4668030767442704,-0.6853734143760145,-0.683256545846227,0.6015336736319898,0.3015449918729368,-0.3984530677935492,-0.5222598566888198,-0.27077153131435,0.8009887361048069,1.0,0.0712470499879101,0.0676332974812342,0.7799673017919746,-0.205949125666389,-0.1347074975567263,75.86171042370678,2.0
0.0998805225811518,0.802260715499168,-0.0748122133067669,1.4621582838067375,1.904297570050982,0.8735789163542226,3.064771956623074,2.746823390302126,2.9934630882249427,2.9296749104798683,0.5504703472018032,-0.0075772492957542,-0.04210121248688386,-0.4348779466714609,-0.1301397795298148,1.7541575297013663,3.9260354564257063,3.05386927532962,2.817045881690216,1.094191469830125,-1.1843115517173362,0.4697509003974953,-0.4467129435654877,1.9506446022737813,-1.0115343467380704,-0.9905722451750716,0.0712470499879101,2.3598324293470623,-0.07642793319261601,1.2373096971823814,-0.0841918186384184,100.15538290788014,0.0
-0.8096599282861986,-0.72284644216422,-0.5399233184904689,-1.0218639667864675,-0.7691155825896386,-1.6702781718191313,-0.8221456967072249,-0.9031080424580464,-1.4760554698238482,-1.5200225731807877,-0.3284192018738052,-0.1062533684651271,-0.092740643289104,-0.0580348301233338,0.6283783781599586,-0.5180663162779747,-0.5020089815444311,-0.6037681269785586,-0.6916123476322208,-0.3265347111954896,0.6909444406955692,1.482689455916947,-0.037085004591978,-0.2744998494910383,0.8009887361048069,-1.0,0.0712470499879101,-1.5629733018408134,0.7799673017919746,-1.3293235606395193,-0.1276208735930409,71.11111111111111,0.0
-0.961031671054825,0.7871335383210434,-1.6075064425403798,-0.9171124698960104,0.3749003947433065,-0.6902392741164828,0.0506920276157935,-0.3977460378900427,-0.6167431899931632,-0.6199183226844893,-0.1391913772723022,-0.0200300730048071,-0.0701817762712133,1.119894414201691,-0.9913959928821482,0.2348576854885362,-0.2532154182595055,-0.4723644438791615,-0.2473450676346166,0.4146672545290232,-1.4205032176647852,-1.2634482094034634,1.0871205187355475,-0.0305708146272957,-1.0115343467380704,-1.0,0.0712470499879101,-0.6220824709754195,-1.005760024714203,1.146599039383155,-0.1369724136885096,79.77148792521423,0.0
-0.6021882881465043,-0.4197171976473666,-0.46545568289023,-0.7003889511236754,-0.4366702486775313,0.49618540547900686,2.001223705823017,2.181454994349459,1.5304400736211747,1.5366672725302615,-0.2694855608195884,-0.0895802656744064,-0.08546819186698155,0.3695076973496197,-0.5776095773910493,0.4523991177775477,2.1135053619890765,1.618373664889244,1.0377756712973607,-0.6750578858193123,0.5988537823668512,1.4875425323095197,0.3426347601080223,0.8569900792771414,-0.5584035760273511,-1.0006815422256077,0.0712470499879101,1.416605065608063,-0.5839897842832091,0.0877523630348645,0.0370129614050345,86.29213483146067,0.0
3.3613122701416565,-0.5879433303960858,3.644901385707178,2.387409288490916,-0.4639658314232871,0.0679905252249485,-0.8516491340438785,-0.7347191895689551,-0.24568863044317146,-0.23829257033562334,-0.2282840009966541,-0.1017080364720276,-0.0928488796779387,-0.7354418399489232,1.4252277028626028,-0.513874000356416,-0.5169284262946288,-0.7800963797612743,-0.791867878395866,0.4139657622087041,-0.1224447602073147,0.025054011816475524,-0.7341784023676018,-0.2911509972679815,1.7072502775262457,0.9957846829198622,0.0712470499879101,-0.2328998625270504,1.67180972128119,-0.606119365445216,-0.1390270584520836,84.55045871559633,2.0
-0.3639280329566713,-0.8353163002043705,-0.0650541395839236,-0.7024365626884066,-0.8190448787508107,0.018662515160508,-0.8921970506601519,-0.8634945112344711,-0.2843360021729383,-0.2774503500622264,-0.3194459991275881,-0.0988743963569169,-0.090058162888037,1.1037705827257025,1.0333219709204853,-0.5128154564251022,-0.5125258966505688,-0.8196402398702951,-0.8199992850466388,1.51506780251976,0.530105921248466,-1.3402136600119694,1.149907194353086,-0.2719373633693785,1.2541195068155262,1.0,0.0712470499879101,-0.2699785849562756,1.2263991334185185,-0.3715086032660977,-0.1390064581407796,80.58761804826862,2.0
-0.2723230099966561,-0.5960466379043251,-0.0945420411989393,-0.501339553225862,-0.5389273389886734,1.0849571591002258,2.546927741809368,2.924740409039707,2.983602416580409,2.9187685608402028,-0.2761541106862404,-0.0834918856295574,-0.08902902379896849,0.9001114791244925,2.3947930737062797,-0.4519071226145416,3.571279521279027,2.5050002815394987,1.5177136249842638,-0.2002126646155539,0.5007350374338208,2.174694882065716,0.8939490806754182,4.225225168172854,-0.3318381906719914,-0.2357273937287682,0.0712470499879101,2.182461213191222,-0.4582512891368972,0.2785110481968741,0.068564670043934,101.40582524271844,2.0
-0.1652336109350848,-0.320719615774117,-0.1299061550923096,-0.3674904183102776,-0.3375548529150963,1.1118056666376182,1.2656128919174885,1.6161038212580394,1.2362560880304487,1.2226515035355157,-0.2243826876794742,-0.091109387724009,-0.0684781362454104,-0.2266439371013852,2.6559440097906806,-0.2063791933413168,1.1210123569918462,0.9140643549330992,0.689405600518659,1.712964218771064,0.8164325108760331,1.563892048640332,-0.209881652717731,0.43689757490949843,-0.3318381906719914,1.0066415407230838,0.0712470499879101,1.2621837399360734,-0.330516828307675,0.0302381090309125,-0.0202193498025825,111.15449343655337,2.0
-0.1520846882165989,-0.6551267752129013,0.0264723183274174,-0.4533823349992637,-0.5935860678038131,0.8436577328559812,-0.5544200458667753,-0.41337376533322695,0.3508933958625315,0.35340123650727956,-0.2640653069155077,-0.0920165940716175,-0.09393961248312266,0.1224321140917261,1.2486855465795834,-0.4776345127118799,-0.4853174960693556,0.5243521344640177,0.4828166602705834,-0.0420092821482179,0.4476106156033513,-0.45362985115171706,0.1418883755959021,-0.2591473908754989,1.7072502775262457,1.0157754610728398,0.0712470499879101,0.4442811342254157,1.4638856887167497,-0.0062959314151506,-0.1377071813451724,89.18709677419355,2.0
-0.9258568914519076,0.1302469175854927,-0.8151793469716966,-0.4137233320613128,0.2545025520380174,0.03564709832302705,1.8796536746313477,1.6252273855779633,0.7919554267858305,0.7800233235440733,-0.2583013340198108,-0.1057817679986119,-0.09069064896562798,-0.9025370769891896,-1.0004035222537977,0.4634714135116984,1.7629083765172515,1.5318886765697544,0.8924948369290506,0.0127017610288204,-1.3865339650756494,1.3058272105108122,-0.9060224025535084,-0.11923342016681202,-1.0115343467380704,-0.9995105683277237,0.0712470499879101,1.175520911503091,-1.0140122806072138,-1.2080584708004694,0.8676038106699357,87.97708929966154,0.0
0.1244462800087757,0.6726827865173084,-0.1616020879876767,0.8358046830584478,1.2012674060387,0.5615146311527189,1.0881205466427435,1.4409627302729404,0.9559867765383766,0.98311244158242,0.5873402394044548,1.0829295466440445,0.40849957398864056,3.192898378055664,-0.812835627946554,1.126279684241546,0.5322792038702755,2.7783802068241252,1.8435948599372771,-0.6535494271939069,0.0158995687104381,0.9220297099390453,3.0402800954883467,1.345179902198013,0.3478579653940876,-1.0097677248648376,0.0712470499879101,0.7489434466870598,-0.7994745247770689,2.94012182217875,-0.1398120190248451,91.21668597914253,0.0
0.3054983896201626,-0.2704570571584475,0.38517056116128,0.0316321832677148,-0.3256974896183633,0.949393621785209,0.1038224611731,0.6493504251289981,0.6229968876353779,0.6353295302228654,-0.1091516950665317,-0.0749482582976173,-0.08554073674412477,-0.2464592554636227,1.8484305528258067,-0.4539355506146924,-0.1001901753491501,-0.000570337174963,-0.1542546318285356,0.7531193239335684,0.8717306824505914,1.115968073685732,-0.2403695596532182,-0.11530763779736189,2.1603810482369648,1.0064812824651197,0.0712470499879101,0.7321141743900907,2.126396918124147,0.4799318243254492,-0.1246455585196631,97.07865168539324,2.0
0.3999229682426427,-0.1498471681510043,0.4898383665314868,0.3040453481492513,-0.0834154110879666,-1.774040717972891,-0.1911743994512577,-1.0389120906062268,-1.445578673759589,-1.4877223367109105,-0.2381605672926082,-0.1037873526111965,-0.0930269163245265,-0.8234246796596204,0.2234347853994319,-0.4825872401934958,-0.497564483812822,-0.570796730842123,-0.1756701649801398,1.2423367061994894,0.1575967400617286,-2.602983729947822,-0.8234046832982084,-0.2820213372377015,0.3478579653940876,-1.0,0.0712470499879101,-1.5288135256943158,0.3335354701654303,-0.8493881596580728,-0.1331394202250702,65.06751389992057,0.0
0.2724907661211956,0.3118005321145832,-0.5161335621150698,0.104403220587963,0.6204930761314805,2.193353404388596,2.1664235716538163,2.74142822102233,2.7323105026122705,2.69985272746106,0.0679370827530842,-0.0585634460001828,-0.0738111352030148,-0.3751877588812897,-0.9913959928821482,3.4044037727557637,2.0114414319290423,2.967497002668547,2.3121368322000313,-0.7433217676621051,0.0121614111896803,0.9075141784559336,-0.3838824782226517,0.5081773820734256,-1.0115343467380704,-1.0,0.0712470499879101,2.6640367084670564,-1.005760024714203,0.7530473450576679,-0.0756921161301485,77.0783384443825,0.0
0.0998805225811518,0.802260715499168,-0.0748122133067669,1.4621582838067375,1.904297570050982,0.05556369747670715,3.064771956623074,2.361185268589919,1.7542093283883786,1.7266976528531883,0.5504703472018032,-0.0075772492957542,-0.020027944508917893,-0.4348779466714609,-0.9805012546620072,1.7541575297013663,3.9260354564257063,3.05386927532962,2.817045881690216,1.094191469830125,-1.1843115517173362,1.307332342617459,-0.4467129435654877,0.6750411106068799,-1.0115343467380704,-1.0055086556902415,0.0712470499879101,2.3598324293470623,-1.0012760057812868,1.2373096971823814,-0.0841918186384184,100.15538290788014,0.0
0.4030998179842479,-0.30249474146137,0.3350981098681495,0.0936802021305551,-0.2004013059500363,0.740030298395056,0.0808546524410948,1.1756752856937123,0.7884912463923177,0.8249251074862203,-0.1629809753651951,-0.1010369856385426,-0.06506663194858095,-0.8532296283227256,2.66197108802426,0.9341145949963297,-0.3415495722509633,-0.5688437418283759,-0.6362695646216185,-0.3467068901167504,0.0391547795917285,1.5784514280856583,-0.8555175988330739,0.2997078972432135,-0.3318381906719914,1.0125015118606326,0.0712470499879101,-0.3064690194049875,-0.3330454778842572,-0.5429338158965611,-0.1097284657889638,112.43921568627452,2.0
0.0532285294143055,-0.4543970248934647,0.20282991349355,-0.2705521760747155,-0.5316305000368376,-0.28225277806986787,2.8743137290799257,1.963268758232721,1.0287055905249765,1.0579787618696337,-0.3238693099463426,-0.1070103989111994,-0.09250306640660204,-0.5418961678815675,1.8664824443877055,-0.3771533561906844,4.30734472098681,1.9213184255680649,0.8916630472829844,-1.068024650324762,0.4001244161026113,2.1163241370667665,-0.5390886555707812,0.7092060456892805,2.1603810482369648,-0.22068636828418708,0.0712470499879101,0.9337965362572732,2.1094023956302075,-1.5837438764357863,3.527899266010198,95.64456411982498,0.0
1.2806997196108656,0.8425035752902992,1.2381829035318797,1.4611344780243722,0.6575515591414979,0.6166580137222625,-0.4140272284315499,-0.3901172424973653,0.23313137693949693,0.24422189407055783,0.0901639990308386,0.0153487513534169,-0.009892017282151236,0.4632887744724283,-0.523429130221588,-0.2839157056305065,-0.3542283238615344,-0.6309570547504377,-0.6396902519384675,1.3518950476094092,-0.0617754722989247,-0.7898389719878965,0.4355110811174116,-0.1598651260329157,-0.1052728053166317,1.0044313813876855,0.0712470499879101,0.3247717969352689,-0.4882174662367053,1.3783601126412133,-0.1391587611162057,88.32200731834814,2.0
-0.9060052135623806,1.064827205809389,-0.7585184152452594,0.1954680507036384,0.9645930833694364,-1.586927315309655,-0.3640926370303401,-0.9164578101352056,-1.3537915972873729,-1.3906144697128155,0.0599547395129601,-0.0981917082050187,-0.0900323765659983,-0.9593006887175688,0.2234347853994319,-0.1462875421379338,-0.4136115302392812,-0.596508153650309,-0.5622630688720265,3.6435255928042767,-4.178008339335281,-1.4719817797714472,-0.9636239507561184,-0.2777119986956127,0.3478579653940876,-1.0,0.0712470499879101,-1.4262950738993636,0.3335354701654303,-0.3251787589927837,-0.1270095081055734,68.23099033185262,0.0
-0.8950961338692212,0.8560204681739356,-0.8874389512915841,-0.2681812574208163,0.505534080978254,-1.255223470575734,0.429874169488309,-0.5542238362114139,-0.8797630449848116,-0.8931221798738079,0.6007993103257067,-0.090053947117309,-0.0915890493310456,-1.0007821605615224,-0.5864524001216215,0.1085216479875784,0.4133776883460527,0.0583119030277522,0.0463435772331422,1.132137961521958,-0.7137027291663194,-1.1100850426220557,-1.007088406962101,-0.2347863449547634,-0.5584035760273511,-1.0,0.0712470499879101,-0.9052725909753708,-0.559328193087658,0.0704427499982277,-0.0759485366646637,65.25231719876416,0.0
-0.2283248862879951,0.21837139344178,-0.1017003361562076,-0.1619748786291026,-0.1066234127542219,-1.8009211457968988,-0.4977930307824558,-0.7788565864809287,-1.527230136927728,-1.5743229844117408,-0.1453156599859915,-0.088899932529486,-0.0932857428804149,-0.4978061219699304,-0.9913959928821482,-0.504177544852176,-0.4098126103231082,-0.3241465332132903,-0.3754976156421313,1.2093789682342242,0.1504592811074864,-0.5386009902213166,-0.5013151503586695,-0.2549852972882362,-1.0115343467380704,-1.0,0.0712470499879101,-1.6204673790406632,-1.005760024714203,0.1118779693151435,-0.1333051964108328,64.41939711664482,0.0
-0.1398566645837343,-0.7491885114281813,0.1454211002044131,-0.4777920202314536,-0.7370230038662872,1.1881962411602085,-0.6833386986514695,-0.3924125973783843,0.5863050297745285,0.6052472389229012,-0.3093848685549323,-0.1005449254093303,-0.0911458626534883,0.2975650099195083,1.0333219709204853,-0.5081747417777476,-0.5060230001691579,0.5175001733501265,0.4386490706842169,-1.0162409282960068,0.478828161546211,0.2993082310977737,0.3205189690914578,-0.2731129792913843,1.2541195068155262,1.0,0.0712470499879101,0.6231546233592261,1.2263991334185185,-0.5000208577503832,-0.1375802872484734,81.85079282557837,2.0
-1.0949578504044395,-0.0108083584812615,-1.247205596357875,-0.9447282837624504,-0.0014948811888852,-0.3821932554410708,0.46201937074527,0.5310840002834842,-0.2478287615598519,-0.2400260882413008,-0.0583259269929981,-0.0717578610471296,-0.0255614343975369,-0.343806871022251,-0.9913959928821482,1.4072198233889992,-0.0031548669477051,0.3722207466668669,0.1750011068745255,-0.4144622530932209,0.3985205093715926,0.3915842739869852,-0.3482105063037421,-0.115046071931045,-1.0115343467380704,-1.0,0.0712470499879101,-0.2316934406532391,-1.005760024714203,0.5422669538102606,-0.1226688194119241,78.20365535248042,0.0
