ppg_mean,ppg_std,ppg_min,ppg_max,ppg_range,imu_mean,imu_std,imu_p95,imu_energy,acc_rms,ppg_bp_low,ppg_bp_hr,ppg_bp_high,ppg_bp_hr_norm,ppg_f_dom,imu_bp_low,imu_bp_high,imu_jerk_mean,imu_jerk_std,coherence_ppg_imu,ppg_entropy,imu_entropy,sqi,fusion_ppg_imu,hr_candidate,phase_id,sqi_flag,motion_weight,hr_cand_weighted,ppg_hr_smooth,artifact_ratio,hr_true,phase
0.2725699897333815,-0.4115821578801305,0.3315011556856416,-0.0909012035269868,-0.4284275231949021,-1.0034923789677843,-0.683656660807495,-0.7608052663885074,-0.994811122638043,-1.0132545725368938,-0.1615895276401462,-0.0905467065477449,-0.0915992963911215,-0.4986351757624304,-0.9913959928821482,-0.5127317456434123,-0.4990242437742785,-0.3319156723848008,-0.1073956644187134,-0.3447167835936719,0.5567259061215479,-1.1100897190457952,-0.500734488379771,-0.2783747589563042,-1.0115343467380704,-1.0,0.0712470499879101,-1.0304504779194363,-1.005760024714203,0.0519631735257914,-0.1389431471107797,78.92490118577075,0
-0.1123836643974886,-0.783290256870375,0.1662193303290136,-0.4769298679936721,-0.755670481187645,0.4443131262163726,-0.9536616313816274,-0.7776582856000934,0.0202759085987597,0.0336929716307371,-0.3055951343708102,-0.0953199090211966,-0.0892383956233337,0.8296229087125986,0.6283783781599586,-0.523747756582753,-0.5220491780428593,-0.822897578924392,-0.8264169561199012,-1.2887395720490478,0.5524245735397758,-0.3553147697744716,0.88510999586705,-0.2813618045707543,0.8009887361048069,1.0,0.0712470499879101,0.0471843481879947,0.7799673017919746,-0.1585216691001041,-0.1404415260136104,75.33404029692471,2
-0.1337288770965825,-0.1729723455008885,0.1182836835007393,0.1626793234105091,0.0917762870797183,0.4506857528593078,-0.7540011520121007,-0.6807327361607638,0.0391884561924473,0.0529277593707589,-0.3015341854936751,-0.0993898376264853,-0.0908631754491687,0.1997568132101972,1.438265563681012,-0.5002889463415635,-0.5136694017635128,-0.784576407219861,-0.788535997034928,-0.4922633779517067,-2.1515077410413386,-1.1061742934582368,0.2335067053004928,-0.2781919190936257,1.7072502775262457,1.0,0.0712470499879101,0.066706806495138,1.6728309650450623,-0.4086715201472692,-0.1390566746218772,90.0,2
0.2379698446772222,-0.4347882253935035,0.3861677365782129,-0.1109193007979769,-0.5053821488073176,0.031649350958015,-0.3021398333357577,-0.149492042507928,-0.1929770917886145,-0.1838657291817947,-0.2015575373455816,-0.0821012540834131,-0.0856693249382172,-0.0077045668179103,0.6283783781599586,-0.2487387236918564,-0.4214638878054184,-0.5752463972479667,-0.608333540045086,-0.7488913633044084,0.9375753033016926,0.6809350303531241,-0.0076266647982967,-0.2365505327433793,0.8009887361048069,1.0,0.0712470499879101,-0.1743116841511425,0.7799673017919746,0.3155674275358714,-0.1358251666893549,76.54485049833887,2
0.0962209121123988,-0.4467743319428602,0.1700655783657548,-0.017268013968957,-0.1829699684539843,-0.1241287833567168,0.9280883151007236,1.0259718693058584,0.1600958320901196,0.1756678271638015,-0.2703658856474315,-0.0787601691092759,-0.0662595057426557,0.998189659501348,-0.9913959928821482,0.76387167969516,0.6231477444921674,0.5295050518080973,0.588345837999437,0.9886760483900132,-0.5604124941343285,-0.1584271503496144,0.8757783044379784,0.7269492248243926,-1.0115343467380704,-1.0,0.0712470499879101,0.1910527557725201,-1.005760024714203,0.3972247988334162,-0.0914346716336714,81.29373713613643,0
-0.2237169154292498,-0.6222663994252862,0.0050686602711077,-0.4826685688264054,-0.6100039554454434,1.3979107413250584,-0.1410876675668623,0.0259551625366868,0.8428296943098369,0.8615274096960932,-0.2656943027176918,-0.0976221090245822,-0.089822506121549,-0.2462959063711874,1.0333219709204853,-0.4130167781566819,-0.4065738290290657,-0.2563020192162973,-0.3796450683168592,0.3360520187798475,0.6093402823767433,-0.2428387958518736,-0.2351370400204133,-0.2415619655222877,1.2541195068155262,1.0,0.0712470499879101,0.8786762474339874,1.2263991334185185,-0.2887694058946474,-0.126907859840156,83.67315175097276,2
0.6259824270076169,0.859879885176994,0.200230134727975,1.262731694304895,1.3933499351134122,0.5762288105263953,1.4881275281813486,1.513638584477282,1.0101059058371398,1.0277440684427517,0.8748908497924854,0.4620509600338129,0.2864503666579716,1.2105729026634604,-0.9913959928821482,2.689033881039651,1.1310039148614968,3.1946655149577343,2.208368341051402,-0.7249873536629489,0.0460520571767661,0.8822743280959886,1.1346595695020043,1.3194632438818723,-1.0115343467380704,-1.0,0.0712470499879101,1.043509722405162,-1.005760024714203,2.431958046055542,-0.1372127462599806,84.42001735608909,0
-1.5777155883219556,-0.1672491237500625,-1.6496014904980472,-1.4703178417200229,-0.2788085430204561,-0.6597235201032992,-0.1058143457701594,-0.4062001023046828,-0.6402295765214503,-0.6442334421041803,-0.2629883444710199,-0.1045787184883464,-0.0932837599034493,-0.7927464386094021,-0.9913959928821482,-0.1204254535601577,-0.2511078534320531,-0.2271203261394888,-0.2112130115294833,-0.2546221668019047,0.4858770047774506,-0.6036219568920915,-0.7954843798758191,-0.2470834566824777,-1.0115343467380704,-1.0,0.0712470499879101,-0.6472031079932069,-1.005760024714203,-0.9703971264018918,-0.0547230652375473,75.94067135050742,0
0.5862554815179194,2.827700252200393,-3.028837545747236,2.881718885571477,6.486307051862036,1.3998796411400312,1.701750055204355,2.0672028395669133,1.7673449520142872,1.7715573134493836,2.7480583146700814,4.679115857971902,3.429383165347917,3.700355891223845,-0.5864524001216215,2.1743772053871355,1.1495533286443709,4.379715240879865,4.1518769263875095,-0.5047576884905429,-1.7323749996211135,0.663682065352447,3.4330893644448333,3.062592548849234,-0.5584035760273511,-1.0,0.0712470499879101,1.7727105497808555,-0.559328193087658,3.9001980334403776,-0.1405068646696677,79.55207166853303,0
0.7757492681228141,-0.618846119193718,1.01036393417046,0.2464966862773334,-0.6493258097970025,1.1859179825636763,-0.0067970347761168,0.5637294722892003,0.7234591113157077,0.742480000940898,-0.2827996074246205,-0.0895382920536006,-0.089858516112662,0.645770725935729,1.8432091564415387,-0.4611815995907843,-0.1999013915923116,-0.2050404681324477,-0.3434910909147308,0.3599320934927348,0.9227110113513628,1.2366578499951473,0.6606037101975146,-0.0451543962863337,2.1603810482369648,1.0,0.0712470499879101,0.7601895360740321,2.1192627966716073,0.089265464086157,-0.1189354479288453,92.94396211523284,2
-2.2458062210244987,-0.8305924449471236,-1.9934133288934115,-2.2013690548439087,-0.8693119915301234,1.1052907452645602,3.6347969888235823,3.1148444414656455,3.4771270460507337,3.402229072192754,-0.3336847906310478,-0.1051570189159456,-0.0903974306738542,1.0230404471760826,2.2481527492020654,0.5293942713461138,5.363249709097529,3.50590299745386,2.1686810800969,1.3314490558194163,0.624393698856642,2.1435098289286074,1.0435948796633474,4.9593493283737065,-0.5584035760273511,-1.0,0.0712470499879101,3.325147605923407,-0.559328193087658,-1.0745221346620155,1.9968074838161527,101.73618940248026,0
-0.0111092550607146,0.2044870999454636,0.3003394239064885,2.53284359410169,2.8909247849922486,0.9106369725633766,-0.8230236866671049,-0.5966753783293167,0.3686653742148042,0.3864829863245524,0.1057247485823513,0.6013906182009368,1.039643051769665,3.467205936804052,-0.9913959928821482,-0.4994345508910264,-0.5039372204240883,-0.6962119920916693,-0.7012183975944776,1.096178839971155,-6.338780940588471,-0.1990351308179794,3.4000550343094544,-0.2409104739441961,-1.0115343467380704,1.0,0.0712470499879101,0.4037045224881817,-1.005760024714203,2.5827516051841823,-0.1409157532037526,70.25614218504965,2
-0.0728945518110658,-0.273387821510573,0.0654333864032956,-0.3508131609606909,-0.501936419302284,-0.8544869195657916,-0.1632842790412655,-0.1108021970910436,-0.7933853169560914,-0.8031802882683395,-0.2939310299012398,-0.1065907737167737,-0.0934390289312838,-0.8446170432803244,-0.9913959928821482,-0.1790460486855409,-0.3870969009375167,0.1065263629395056,-0.0619985504439426,-0.6672272707869684,0.5217232327029089,0.4324367889489798,-0.8481185046493629,-0.2691621246157904,-1.0115343467380704,-1.0,0.0712470499879101,-0.8118156968831705,-1.005760024714203,-1.4313503045244242,-0.0555690716389799,80.48205396908567,0
-0.3048172331557615,-0.7581350110401366,0.0097696300937913,-0.5290900783794553,-0.6726689381105139,-0.8923374392958885,-0.9147077780939132,-0.8831910843566877,-0.9360912020127962,-0.9518913327581712,-0.3137536069012307,-0.0997659410933737,-0.0903463795762859,0.6040751810336641,0.6283783781599586,-0.525075601994939,-0.5224243393384973,-0.4815810022029383,-0.6214451078479527,-1.1834844811094118,-0.4234440785512531,1.3685590469266722,0.5911740195232429,-0.2821469895494793,0.8009887361048069,-1.0,0.0712470499879101,-0.9664597800541134,0.7799673017919746,-0.4371092344370129,-0.1402386539972711,72.71962125197264,0
0.1941411437109743,0.1750215467289267,-0.1109242087628369,0.0506264747563394,0.1686971310303197,0.9141462747683624,0.1517636011624123,0.4745101400386035,0.5736897171491756,0.5926003565082119,0.0996522939437617,-0.0736612418046433,-0.0859237173311213,-0.6261730972737067,1.0333219709204853,1.0450866777290992,-0.2245158631781454,-0.2636287356854924,-0.3772529282131619,-1.0990198289354762,0.6197871774589518,0.1147489527992151,-0.6254992060762701,-0.2224977546912001,1.2541195068155262,1.0,0.0712470499879101,0.610501690752885,1.2263991334185185,0.5057590739787581,-0.1298173972093078,86.33945708801755,2
0.2694177561249389,-0.0259447096669485,0.2837791893038529,0.0100514350657455,-0.2565802095468084,-0.6415419624051167,-0.4480699302563771,-0.6826116585571408,-0.7036627278186782,-0.7099835305047598,-0.2368065796567791,-0.0957094682639684,-0.0760091883885451,-0.3765354452547354,-0.9913959928821482,-0.4769160336322334,-0.4775443415662949,-0.7267889801187942,-0.7341192420400354,2.192252716028677,0.4169718291450032,-0.9448113810992308,-0.3721419424977107,-0.2702284626152708,-1.0115343467380704,1.0,0.0712470499879101,-0.7152125890575481,-1.005760024714203,-0.1789047755404069,-0.1360127873349709,100.49725202826484,2
0.132755026281713,-0.2045431145907553,-0.0914792881326454,-0.0012643130551371,0.0851888630259777,-1.006312067626173,-0.3386581897839452,-0.5083864605330639,-0.9410598707464716,-0.9570797619940578,-0.0475178896852688,-0.060172820081654,-0.0895159567958131,-0.1354100038169585,-0.9913959928821482,-0.3106977602050149,-0.3541606417747373,-0.062730166715546,-0.1761428446056617,0.500169376298878,-0.298309207120339,-0.2443693102210641,-0.1346856355901011,-0.2144347692453887,-1.0115343467380704,-1.0,0.0712470499879101,-0.9718663033369288,-1.005760024714203,0.7305285642457686,-0.1363567939733948,76.13879467779807,0
-0.0807547694484036,0.8106196699746974,-0.1994947538311269,0.3267307289058781,0.5989065942322999,1.0068175333426457,3.4876946425546813,2.7910587485891907,3.223597862299885,3.16448263894966,-0.1589779797361006,-0.0753718867353531,-0.0840361987618355,-0.045861302320748,0.2234347853994319,0.8716833415853008,5.281975270735357,2.7259235067300693,2.1729531111343054,1.1906986503897514,0.1268828419003877,0.3400911558726149,-0.0327455282748286,2.321414428480452,0.3478579653940876,-1.0,0.0712470499879101,3.102622383796945,0.3335354701654303,0.4712148117992396,0.0836803995843426,103.40532959326788,0
0.0127730040066552,0.6341631817058159,0.1385477125091257,0.6532439467082064,0.6876510198178202,0.8706992700080363,-0.3510418380814326,-0.0370031292920472,0.4062576359471361,0.424357849125952,0.4858953020749559,-0.053689022653677,-0.0882549761462501,-0.7044221282056535,-0.1815088073610948,-0.4239880924087658,-0.3949225689846691,-0.4169996555259283,-0.5242119204723736,-1.3337229422297452,-2.0512911985360587,0.9093636586951386,-0.7096298185819063,-0.2624076521727148,-0.1052728053166317,1.0,0.0712470499879101,0.4417866887567628,-0.1128963614611138,0.8170867578943377,-0.1378540936390736,69.52192362093352,2
0.1517031912425864,-0.0525307414017235,0.1341672633561704,0.0177569206909181,-0.1050018929871473,1.015511875677641,0.1450234910667015,0.375308052828135,0.6457968506656868,0.6648325808599506,-0.1659231793583878,-0.0900738514389743,-0.0884199056241513,-0.4694341205383367,1.438265563681012,-0.0473126961319683,-0.3299061851741678,-0.3695962083293929,-0.4505239981201757,0.999589061161139,0.5550724475544526,0.0278126772389831,-0.4629737611951494,-0.2317270637570464,1.7072502775262457,1.0,0.0712470499879101,0.6827132593253048,1.6728309650450623,0.0697058028153911,-0.1272955812893119,87.81704781704782,2
-0.1684445397052312,-0.7493324941643165,0.1186398175782153,-0.5089911543361731,-0.7507383585627931,0.0183291589178415,-0.7233500022849721,-0.6459236934514001,-0.2704536703110173,-0.2632149679845715,-0.3280928649123689,-0.1003346382554708,-0.0899566887664412,1.688770719849774,1.0333219709204853,-0.3413267217111315,-0.4999884759791771,-0.7042885002160433,-0.7158085769050389,-1.034298237910294,0.3210425057225091,0.3076925343494852,1.755592264447805,-0.2536854892428203,1.2541195068155262,1.0,0.0712470499879101,-0.2554113090505906,1.2263991334185185,-0.4824650668087962,-0.136736215123199,82.92030848329048,2
1.5476456571842907,1.0326870894944025,1.014317022430444,1.5632995182014848,0.998003146903536,0.6580674544832945,1.4685507832997236,1.806677463968526,1.0563499255962103,1.073571289939128,0.7356680402675868,0.3208475790110207,0.1758545428848155,0.941340291250964,0.2234347853994319,4.854190168413783,0.8939669083559248,2.0227484512317866,2.8418865869268335,-1.0326021055851873,0.5876215747207753,-0.1667831115877119,0.9550870805960692,0.9319179633784572,0.3478579653940876,-1.0,0.0712470499879101,1.088833248078573,0.3335354701654303,2.235755383952414,-0.1366928301107627,80.02526049889485,0
0.0599472751678286,-0.1243071297638745,0.0745860321944297,-0.0372861112399471,-0.1175011078583473,-1.045122341087175,0.5656222316645673,0.5594954455813435,-0.673938130573967,-0.679158906496765,-0.1133607307869256,-0.0518899690456097,-0.0753894755281966,0.2901763546647218,0.6283783781599586,0.1910476370406648,0.3446214058238953,0.36631225374556,0.4392518706432321,-0.7751160936811482,0.3041210710997299,-0.5728778180765706,0.2769402868178032,0.2266774748429954,0.8009887361048069,-1.0,0.0712470499879101,-0.6833139494114066,0.7799673017919746,0.839298088257344,-0.1211738916793997,72.71962125197264,0
-0.0713178857807571,0.6273650395749203,-0.3258511245196242,-0.1172237890367544,0.1621097069765791,-1.9335582559660744,-0.6844665581386908,-0.8288661935367024,-1.6455112339423077,-1.7001371724113308,-0.0882134420764499,-0.0860337146521138,-0.0920675510317291,-0.5655326651148572,1.0333219709204853,-0.5119187069177662,-0.4729894115658736,-0.4217350872529993,-0.5156016905313427,0.2248667919373543,0.4618968733041237,0.4033571134460551,-0.5625381350494735,-0.2730697324739062,1.2541195068155262,-1.0,0.0712470499879101,-1.7540081539479586,1.2263991334185185,0.2051657038195357,-0.1378641568969432,65.67504534853589,0
1.416718495372136,-0.3224702769984153,1.625656779825806,0.9572873218133532,-0.341743778980039,-0.0203844516249489,-1.022559249973556,-0.8733231385885496,-0.3182329212736146,-0.3122317521085291,-0.1796709001339522,-0.1044142651396685,-0.0924629726779896,-0.9574127446028186,1.438265563681012,-0.5272171537087087,-0.5253948404766824,-0.8371053064476337,-0.8410494972495306,-0.2261788207108742,0.3891901722878226,1.242270949919009,-0.9624109551679412,-0.2856922586700094,1.7072502775262457,1.0,0.0712470499879101,-0.3055938277669495,1.6728309650450623,-0.9434447399597576,-0.1403512848510337,85.35591426303255,2
1.3481311505771003,0.0203895731100091,1.260156376112151,1.093076299263946,0.1752169917604322,1.1315530367316868,-0.5009383854946099,-0.3742451943068597,0.5701853824426308,0.5890865218393988,0.1043388711076428,0.0299096626696143,-0.0484097054796099,0.5814700443194271,-0.9913959928821482,-0.3412575101408252,-0.4325898253439135,-0.6203490778419921,-0.6313859359762671,0.6996876257246349,0.2303788575645335,-0.7022328699540861,0.473812952444659,-0.2185953191564603,-1.0115343467380704,1.0,0.0712470499879101,0.6069854456938069,-1.005760024714203,1.4549726725147103,-0.1400765243177581,81.13372842051018,2
-0.1985714723756069,-0.4612897270470873,-0.0278737418954255,-0.4628660096148607,-0.5539263968341134,0.881775395017496,-0.8301585596638181,-0.6345499286574047,0.346958124397769,0.3645956436410699,-0.2407289128105242,-0.099591814060684,-0.0900909283176322,-0.563187197515594,1.0333219709204853,-0.4775771889010379,-0.5114546679137347,-0.7913388184921764,-0.8006851709582599,0.2636294354349588,1.0482563092963206,-0.4405388567380655,-0.557919713305138,-0.2820583915694916,1.2541195068155262,1.0,0.0712470499879101,0.3816804036778169,1.2263991334185185,-0.4237974746137101,-0.138701406707716,83.52254641909815,2
-0.1308460794007067,0.2012531487313905,-0.2060120074489383,-0.2418047873961872,-0.1077719892558997,-1.1386792297127335,1.143210561342325,-0.3896022523654934,-0.4393266400181429,-0.4367463206725569,-0.2268182855201699,-0.1040442749944969,-0.0930242474704271,-0.8671313734929329,-0.1815088073610948,-0.2599445025836561,1.5344241947487025,-0.0758176149659953,0.6035279100316607,2.699624545680412,0.4913755609611773,-1.6570737454917537,-0.8692125490168056,-0.0600911507460058,-0.1052728053166317,-1.0,0.0712470499879101,-0.4333609725086321,-0.1128963614611138,-0.886398567648729,0.4288118499639547,63.53671147880041,0
0.1541270340109083,-0.4497066335759523,0.3495927668214241,-0.1109731853128383,-0.470755945447912,-0.6167106229642154,-0.8228257594239863,-0.7819923741387286,-0.7343126723668323,-0.7417942553447892,-0.2454591712982197,-0.0814374475851778,-0.0885958082818711,0.4569191776963627,0.6283783781599586,-0.5220838406402547,-0.5075808947281559,-0.5445393744795904,-0.4974104717641119,-0.3518852111908673,0.3561696953425374,-0.4690823638257463,0.4496662277066099,-0.2727160262187642,0.8009887361048069,-1.0,0.0712470499879101,-0.7481590871271956,0.7799673017919746,0.3325782938967169,-0.1400207322217485,71.68265491314493,0
0.7818690153001945,-0.468758462416409,0.8362499836924263,0.2678888386772879,-0.4573446257077325,-0.9005966689594825,0.2671148383756517,0.0588220083315283,-0.6928092330518287,-0.6987254465766407,-0.2783185812036467,-0.0906790261320989,-0.0764421493903276,0.4312818969590464,-0.1815088073610948,0.0609771643652757,-0.1394088955859634,1.2347916313320968,0.8697183579152352,-0.6726687459256724,0.1729592849898889,-0.1722353582006632,0.4322938901095071,-0.0351191050617341,-0.1052728053166317,-1.0,0.0712470499879101,-0.7035592153250961,-0.1128963614611138,0.0469154702032223,-0.113217088693857,74.46540880503144,0
-0.1699028880303761,-0.7183902905952751,0.1051423360418735,-0.4472125580476395,-0.6604737581956404,-0.1580852057835761,-0.8376406953698275,-0.7678612969237973,-0.4076960279467263,-0.4041826555406648,-0.3005676710195049,-0.0912691005195822,-0.087088868063624,1.0452260179547606,-0.9913959928821482,-0.5168993394637975,-0.5116742503992133,-0.7480879085998047,-0.7647719091248686,0.5048265085278402,0.2377055256511869,-0.0560901001828404,0.9965548083882756,-0.2715355517337959,-1.0115343467380704,1.0,0.0712470499879101,-0.3999062065100993,-1.005760024714203,0.0239449589612171,-0.1397947062987989,82.02135972909612,2
-0.0066755149235753,-0.444888354459858,0.1250502309727839,-0.355258633436752,-0.5640608953783297,-1.9330866695517273,-1.0224203723599157,-1.1263802881212437,-1.6693959540838104,-1.7255956197115705,-0.2982781101281452,-0.1075859687788289,-0.0934837357359111,-0.9625071243303632,0.2234347853994319,-0.5246608289339312,-0.5264801471085054,-0.7831796201541901,-0.8043589873566864,-0.7130587255865766,0.4253070463974903,1.1420298633862125,-0.96684802712372,-0.2857729329261468,0.3478579653940876,-1.0,0.0712470499879101,-1.7810858285198403,0.3335354701654303,-1.869349325746341,-0.1398825587498515,66.93668290182005,0
-1.4946291340076894,-0.0193192363676938,-1.7112126859014012,-1.1340784689852217,0.2012288713572539,-0.5930311041340061,0.8169421004895251,0.8843170323847338,-0.2335704804516202,-0.2254196502928103,-0.0065351637405119,-0.0832680471524145,-0.0858850506530165,-0.6477917891391474,-0.9913959928821482,0.7431877751980887,0.2466671022577304,1.2488997318330106,0.7943626485625742,-0.3973426400669395,0.0259240159257726,0.7090946615128885,-0.6490610818058425,-0.1309190724719014,-1.0115343467380704,-1.0,0.0712470499879101,-0.2167612045510499,-1.005760024714203,0.2846116638991783,-0.1017357717638739,83.62976406533575,0
-2.461681200376059,-0.3814733240799162,-2.3812789526725613,-1.9948835938952296,-0.2424932565703478,-1.3705421402977038,-0.5719160817204183,-0.6918905143143196,-1.2383899747765308,-1.268884732530489,-0.27131882258054,-0.103067116610882,-0.092657540823245,-0.6235133862113067,-0.9913959928821482,-0.5040827445333673,-0.4541772569247053,-0.1329203161305817,-0.2736667189110577,-0.5373322588561581,-0.4903219050855575,-0.1420562118073653,-0.6261466395396851,-0.2704245148114286,-1.0115343467380704,-1.0,0.0712470499879101,-1.2981626509870214,-1.005760024714203,-0.7551094451096356,-0.1242244285331692,86.62394257882595,0
0.526421179889437,0.3865025277982302,0.3360240584695872,0.3146875398343672,0.0758313427034847,-0.8306223005209162,0.3412407412087442,0.0401493778696123,-0.6154135025379791,-0.6185421859123144,-0.0853942692021746,-0.0857974948828221,-0.0875997747561307,-0.5668140593989115,-0.9913959928821482,-0.0899253486323914,-0.0721791094730791,0.1275159583925367,0.4023918040113169,0.1714995734057289,-0.0706193964980328,-0.790795992569223,-0.5681711765449904,-0.1794855573233647,-1.0115343467380704,-1.0,0.0712470499879101,-0.6206612292280994,-1.005760024714203,0.2123199767147837,-0.1153450283796616,72.07507820646507,0
-0.1398566645837343,-0.7491885114281813,0.1454211002044131,-0.4777920202314536,-0.7370230038662872,1.1881962411602085,-0.6833386986514695,-0.3924125973783843,0.5863050297745285,0.6052472389229012,-0.3093848685549323,-0.1005449254093303,-0.0911458626534883,0.2975650099195083,1.0333219709204853,-0.5081747417777476,-0.5060230001691579,0.5175001733501265,0.4386490706842169,-1.0162409282960068,0.478828161546211,0.2993082310977737,0.3205189690914578,-0.2731129792913843,1.2541195068155262,1.0,0.0712470499879101,0.6231546233592261,1.2263991334185185,-0.5000208577503832,-0.1375802872484734,81.85079282557837,2
0.8300026043619857,-0.0718705571108518,0.847859954618145,0.4635435121388365,-0.2230350193654526,-1.459073375720492,-0.0864410789111672,-0.3549732268181301,-1.1987359686953225,-1.227148605793705,-0.1623419199743239,-0.0946510794478546,-0.0919429258604263,-0.6325952749162247,-0.9913959928821482,-0.0878215232832457,-0.2739913418273965,-0.2164575758162512,-0.3192551039383914,-0.2157176950262843,0.9827864102453824,-0.5129745768682245,-0.6328660586512562,-0.2335127591720926,-1.0115343467380704,-1.0,0.0712470499879101,-1.2543281103458477,-1.005760024714203,-0.124871392896631,-0.1177197888083625,71.85031185031185,0
2.5952600608209693,0.3606806536456127,2.7958065181888148,2.185504011305451,0.0882967759128707,0.1069170037114702,-0.9207983011846576,-0.7951188748979188,-0.2223563330899048,-0.2139356153070104,0.0476895644404003,-0.0804531738236936,-0.0895817399927439,-0.6674986451133211,-0.1815088073610948,-0.5189075954862606,-0.5209341827997869,-0.782294441263608,-0.7948966525897826,-1.0614169622510157,-0.1376030034771501,-0.421552550626026,-0.6666858981028123,-0.2845733554608357,-0.1052728053166317,1.0,0.0712470499879101,-0.2050250332410355,-0.1128963614611138,0.3570542237405275,-0.1406625971129852,81.5070310427169,2
2.3632329634937177,-0.7659138186337031,2.752108866882505,1.446558716754378,-0.796782763615349,-0.0198116795097198,-1.0158377623661798,-0.8728172483574986,-0.3176318069197781,-0.3116146751551137,-0.3242472542704551,-0.1069261123253113,-0.0925211254859577,-0.504801398441454,1.0333219709204853,-0.5257036389517483,-0.5245494081146022,-0.8407503067866501,-0.8413619950078537,-0.9580488064007702,0.477369482009284,0.3570885794081998,-0.4974105192620067,-0.285063131335762,1.2541195068155262,1.0,0.0712470499879101,-0.3049616734696769,1.2263991334185185,-1.5503148665668087,-0.1388848122501106,84.41717791411043,2
-0.8417014270825433,-0.1876722286545921,-0.5706220759689032,-0.2247233961851404,0.2595022379864974,-1.698920118444014,-0.6759241070913143,-0.9429883891546867,-1.4815179160679095,-1.5258148401809524,-0.3375280872733199,-0.1073569314996625,-0.0927917718764166,0.5142129664840531,0.6283783781599586,-0.5240545986756102,-0.5181367475909356,-0.3000842775751155,-0.4143002971760091,-0.9479315206370472,-3.619746765355829,-1.020991851775991,0.5387810922460811,-0.2794223410410502,0.8009887361048069,-1.0,0.0712470499879101,-1.5691021998074404,0.7799673017919746,-1.7412386508249784,-0.1321108450787917,73.86534962308292,0
-0.2790254590416834,-0.797225660920562,0.0313869685965867,-0.6125571918996808,-0.7978299951315847,0.1122544247089282,-0.9121624655335456,-0.7525593979457205,-0.2180289824745966,-0.2095050460078417,-0.3083285375939688,-0.098150228140843,-0.0906284192052232,0.5946148026435658,1.0333219709204853,-0.5166009638843867,-0.5150949251561432,-0.8110819045269415,-0.8199797988109,-0.6685856104936407,0.7189703448248218,0.3390102225244153,0.6405060393597974,-0.2769383810248406,1.2541195068155262,1.0,0.0712470499879101,-0.2004981337749077,1.2263991334185185,-0.3224614995899084,-0.1394539692834085,82.41185487991824,2
-1.5972771217743094,0.0031522548918046,-1.7020956535180147,-1.482414915306395,-0.2441823396610505,0.7569455981467658,1.1910542573863598,1.5212399310064928,0.9494767068325886,0.9675802460525122,-0.2936925934010068,-0.098158633030291,-0.0907868141851601,0.1410241386846896,-0.1815088073610948,3.1765628577653926,0.8660966441204592,0.4774719800097655,0.4067426900144245,-0.2742532248836087,0.6204022871132263,0.837342749503401,0.1436837609310751,0.4472262721754653,-0.1052728053166317,-1.0,0.0712470499879101,0.9839270326078856,-0.1128963614611138,-0.3230112203580619,0.0293051988898542,87.34197302300979,0
0.1880527114242861,-0.2802997590516309,0.3091003222123989,0.0241691779594183,-0.2628973803060366,-0.8973040848436911,0.228821327832224,-0.2187844924946043,-0.7043044263511521,-0.7106492554751004,-0.0806414548205994,-0.06510435409557,-0.0831656753782958,-0.1267879267320861,-0.9913959928821482,-0.1203483235688736,0.1048155010412713,0.2496714656624004,0.2859568829389418,-0.4438700587961665,0.1583303863914641,-0.6437427493193167,-0.1278769715542509,-0.0231793775942899,-1.0115343467380704,-1.0,0.0712470499879101,-0.7159017978591958,-1.005760024714203,0.6565627294919895,-0.1222676247585859,72.32016740779493,0
-1.896168398560245,-0.8344062690068151,-1.61448667045891,-1.8641597608416032,-0.8059375939669576,-0.7602508537624296,-0.9397327682367992,-0.895117555685523,-0.843812210057137,-0.8556616588067028,-0.3157849057151189,-0.1060723235917373,-0.0935355770232018,-0.4998687928032441,-0.5864524001216215,-0.524733299347358,-0.5211836515806462,-0.6436144461970539,-0.7033981313604556,-1.0412281318742789,0.2689328445773807,1.02182725383187,-0.5003350026181517,-0.2841777451028281,-0.5584035760273511,-1.0,0.0712470499879101,-0.8663208447244115,-0.559328193087658,-1.2802199703326091,-0.1379107671276303,78.1832419733751,0
-0.5344887988347766,-0.3613471612936564,-0.5347237609593188,-0.4506072824839043,-0.0577751297710995,-0.0684366466999592,0.4864228317230675,0.5636185820042484,-0.0126212421861429,0.0002122753416423,-0.1625179081552776,-0.0087085972770918,-0.0044615127335685,1.4984626087727704,-0.1815088073610948,0.4342684780250875,0.0542074328084704,0.6699342468586047,0.4549902529460583,-0.5785424323625914,-0.6329252278430861,0.2166565551112583,1.5002398306389215,0.3464546032101754,-0.1052728053166317,-1.0,0.0712470499879101,0.0131795787405002,-0.1128963614611138,1.2295435399217542,-0.1334607401186273,81.22686409307245,0
1.1601225433422775,0.152603579849514,1.1216914467894683,0.7416953778531064,-0.1340203404854198,-0.9534690567058456,0.0507195131705785,0.0385834937088424,-0.8032561420201698,-0.8134474803179367,-0.1802936967472787,-0.0993948243323881,-0.0914385892341485,-0.759658090506773,0.2234347853994319,-0.0069575964022657,-0.1670568424038327,-0.1581663355967466,-0.0514842977890518,0.3270413824242081,0.6683930416669146,-0.7152690269527824,-0.7602730287068465,-0.2303695408431735,0.3478579653940876,-1.0,0.0712470499879101,-0.8224728142813977,0.3335354701654303,-0.4090410102466747,-0.0910848494366125,71.03594080338266,0
0.7881884376733286,2.643571288039353,0.4624516559735797,2.3467803642854608,2.5038545039268154,0.7153701508552412,-0.6301764829436568,-0.4897443105788245,0.2460713022337874,0.2627086823028985,4.513788182206347,0.262270735122892,-0.0124395239534837,-0.6440128149214486,-0.5864524001216215,-0.4563734589129234,-0.4935568686292653,-0.5646520043317286,-0.5850169064628787,-0.4650079068068142,-1.1728851836394691,-0.2018596821590531,-0.6426689015927931,-0.2789877441001146,-0.5584035760273511,1.0,0.0712470499879101,0.2789925927583985,-0.559328193087658,2.1345486818364483,-0.1408407186139628,80.04168837936425,2
-0.3570583580735825,-0.0452143489701944,-0.2211477057416698,0.118170714135037,0.3579420005126513,0.3484270607910106,1.3575205793953784,0.7380381070172514,0.7571225162203079,0.7760890090898619,-0.0534765045158032,0.030714157597895,0.0857427299733009,1.2111435423294037,-0.9913959928821482,3.550311710543632,1.5950508444281797,-0.0556965270675546,0.0328849534924066,0.0431289424141442,-1.2816687575784778,-0.9511138402439352,1.0896590745658516,1.769104391589595,-1.0115343467380704,-1.0,0.0712470499879101,0.7936767618852191,-1.005760024714203,1.4589675319255198,-0.1213342802835105,77.17156680312617,0
-0.1182863952406818,-0.5938321489696196,0.057135462398104,-0.4419588178486583,-0.6083486540165547,0.9001810526938366,-0.2265316004920126,-0.220362968189755,0.455245122155932,0.4736580469458092,-0.3034233202639697,-0.0962398622864579,-0.0879160609525794,0.6302420958323793,1.0333219709204853,-0.4642460649135464,-0.3454912685931905,0.3159203193352984,0.2848375948625173,0.2575413617441372,0.68441136734423,-0.5531881604340352,0.6342881780443419,-0.1532631732596862,1.2541195068155262,1.0,0.0712470499879101,0.4913010446347668,1.2263991334185185,-0.2076613392624912,-0.1221505892830858,84.62179868969625,2
-1.840641920235577,0.5187798584481322,-2.146550982208107,-1.4325986813170803,0.2398750924725319,0.7854900037501209,1.017577924846322,1.3556929072850128,0.8686809151209969,0.8872609723205493,0.0444218650559019,-0.0807112829676167,-0.0864608644289528,-0.6681921561014795,-0.9913959928821482,2.9641209993647064,0.4090478957794068,0.8673950986024316,0.5122094918076466,-1.1980347202593111,1.0322405856195376,1.0807982982611843,-0.6714703971748723,-0.1063202703118237,-1.0115343467380704,-1.0,0.0712470499879101,0.9042413246615458,-1.005760024714203,0.3507192975216147,-0.0978411600868554,76.15866388308977,0
0.8872820953095589,-0.0140066409810876,0.9067289176249336,0.5063817014536068,-0.225163264059738,-1.0326007548070095,0.3532676429672078,0.1349958805907427,-0.7535666916756943,-0.7617912613569828,-0.2368683709520598,-0.0972806578746386,-0.0838491024884975,-0.4567810825653494,0.2234347853994319,0.2538697618805822,-0.0368916920709018,-0.0178553639886846,-0.0495816725377597,0.9301208276393618,0.939693209361111,-0.2987217502508776,-0.4460421251426539,-0.1489370315656316,0.3478579653940876,-1.0,0.0712470499879101,-0.7688843353876562,0.3335354701654303,-0.2678298966929859,-0.0856288434055028,71.51577858251423,0
0.9060810598524844,-0.3776190956503573,1.0137115944987347,0.4380561366094196,-0.4123136705095983,-1.3364225074658336,0.1650922972085908,-0.0725556618500019,-1.0357966181359932,-1.0561450097746412,-0.1661958778320125,-0.0879333386307838,-0.0901851096884781,-0.3971771956044939,-0.9913959928821482,-0.0299958804640015,-0.0613005102096156,0.0472180401857117,0.0499496888486337,-0.2241909021663216,0.766185485436945,-0.7650142327259071,-0.4036158453887555,-0.1442652245439259,-1.0115343467380704,-1.0,0.0712470499879101,-1.0752398725784196,-1.005760024714203,0.1447667313563546,-0.1120368712633149,71.01977909067557,0
-0.3668648348832447,-0.7540563080655053,-0.0798693172069267,-0.6711027172965337,-0.7657036347464191,-0.0896806137016586,-1.0103887197746757,-0.8780899142402161,-0.3677293014480856,-0.3630769711839835,-0.3005147378467049,-0.1014347481891373,-0.091551715510743,-0.0829810015676481,1.0333219709204853,-0.5267043737942152,-0.5250416141560912,-0.8369858514641545,-0.8419660305767718,-0.8888612652593088,0.8201772741166432,0.6135297696106786,-0.0593070436133428,-0.2847470277275022,1.2541195068155262,1.0,0.0712470499879101,-0.3577166366902515,1.2263991334185185,-0.5796850122808941,-0.1405373490782102,79.91462113127001,2
1.0776221942966593,-0.2116669979615195,1.116242595404085,0.6163599962856148,-0.2860040369868497,-0.9720461581084464,-0.0839511271010905,-0.14431231542779,-0.8556401055253876,-0.8679821032734477,-0.1730769777292879,-0.0868367348230407,-0.0910315761706381,-0.3321995398833967,-0.1815088073610948,-0.3281827724426842,-0.2508168719006375,-0.2124221433403439,-0.1586180165024567,-0.0789798372071247,0.4412467857301017,-0.9212174494483076,-0.3262577459163235,-0.1943808033212176,-0.1052728053166317,-1.0,0.0712470499879101,-0.8791274442152941,-0.1128963614611138,0.1802751828595988,-0.1246563969776466,71.34967741935483,0
0.8109654107527106,-0.8799606296148726,1.1678820366381102,0.1686335623026879,-0.8963711026431808,0.3471297061172652,-0.9930561082957872,-0.8059557892418207,-0.0518262194689802,-0.0397264263267387,-0.3267788210963675,-0.1044706400927205,-0.0917154545891573,0.4239519459971546,1.0333219709204853,-0.5248822872301945,-0.5230085078984603,-0.8428856554224289,-0.842734733155583,-0.5757940951773217,0.8062899461480834,0.3080906046576228,0.4660790945525445,-0.2829067698313028,1.2541195068155262,1.0,0.0712470499879101,-0.0274231299491981,1.2263991334185185,-0.9525660298675384,-0.139617434644983,85.9552316501822,2
0.5686352461956905,0.0101719428874112,0.6432609271081628,0.8001870187350979,0.3931424921228958,0.8624044255051724,-0.3907018188905135,-0.5060406006305708,0.3923140574140502,0.4103137754301751,0.139745473085926,-0.0436758714049484,-0.0825538432182827,-0.3013709000907393,0.6283783781599586,-0.4436333900060132,-0.4310327886020665,-0.6376416244343301,-0.5458130899510222,1.5031336822613972,-0.5687179997086095,-1.638147045672533,-0.3128951828359505,-0.2527104553699381,0.8009887361048069,1.0,0.0712470499879101,0.4276700873022688,0.7799673017919746,0.9325101639593572,-0.1390478373942273,76.8,2
-2.628863577549588,-0.3292806721400362,-2.485875531227273,-2.348635433959968,-0.5868297354410023,0.6032169084094994,2.17226192361505,1.8970714097847088,1.5611473719315256,1.570391293369548,-0.2723652434976446,-0.0963562920090288,-0.0903863860482888,-0.0711577712472106,-0.9913959928821482,3.929838836515146,2.490763289658016,0.8431382494391438,0.2600638685226987,2.0755354018932533,0.7510638204089531,1.7017505505020556,-0.0849606704289861,1.037205480680361,-1.0115343467380704,-1.0,0.0712470499879101,1.57683870734724,-1.005760024714203,-0.2141374558019407,0.174006317210717,87.88166341054982,0
-0.3639280329566713,-0.8353163002043705,-0.0650541395839236,-0.7024365626884066,-0.8190448787508107,0.018662515160508,-0.8921970506601519,-0.8634945112344711,-0.2843360021729383,-0.2774503500622264,-0.3194459991275881,-0.0988743963569169,-0.090058162888037,1.1037705827257025,1.0333219709204853,-0.5128154564251022,-0.5125258966505688,-0.8196402398702951,-0.8199992850466388,1.51506780251976,0.530105921248466,-1.3402136600119694,1.149907194353086,-0.2719373633693785,1.2541195068155262,1.0,0.0712470499879101,-0.2699785849562756,1.2263991334185185,-0.3715086032660977,-0.1390064581407796,80.58761804826862,2
-0.1075417862514415,-0.1392655952321689,-0.044718883760042,0.7583456929452624,0.9932737142495685,0.3857411588150377,1.060785518981601,1.2789748287010343,0.6021208663878065,0.6210968454778176,-0.0860570427257906,0.1593989811799179,0.1490523939556198,2.782998238921882,-0.9913959928821482,1.7400844413100405,0.4694108974605891,1.6552167510887,1.3856821418146124,-0.7289988838201281,-2.2940355176828686,0.8254253074005952,2.6461000266375745,1.3268114696072957,-1.0115343467380704,-1.0,0.0712470499879101,0.6390060140898979,-1.005760024714203,1.9103584133144809,-0.136165523692672,83.89513108614233,0
-0.4495990011791005,-0.05540900548976,-0.3469698753139531,-0.3776476493616414,-0.1443913106623345,-0.9263907450787556,-0.7843295838185719,-0.7580013647726046,-0.950704269329934,-0.967152784647856,-0.1902165406408414,-0.0975497218239253,-0.090591393574386,-0.6618493132738273,0.6283783781599586,-0.515019647073025,-0.5114618692823045,-0.1533374538035463,-0.345606266426135,-1.093257916035672,-0.0315788765455438,1.1606380301710826,-0.6587925248897758,-0.2827173918411507,0.8009887361048069,-1.0,0.0712470499879101,-0.9823648845852884,0.7799673017919746,-0.2842768957152422,-0.1391152478516432,72.56384065372829,0
-0.1895584832029818,-0.3588418040372854,-0.1864246331877564,-0.4069608254462138,-0.3334334901737817,0.9592507199343026,-0.0560584318382808,0.308506606518011,0.5426603796059561,0.5614758456357263,-0.2389773804207904,-0.0850134158957096,-0.0883506689008394,0.2012590686753145,1.8432091564415387,0.3016384756922112,-0.2521937921868489,-0.2299828021029414,-0.3299060083349221,-0.5134001290950971,0.5969676941615976,0.6524867861242348,0.2045057093967705,-0.1341402879333071,2.1603810482369648,1.0,0.0712470499879101,0.5793447828523463,2.1192627966716073,0.2355491242323776,-0.1259856951785336,93.75381485249235,2
0.4844922609633299,-0.4601323844369019,0.5939363573777319,0.0558802149553206,-0.4933220955397002,1.0941260179788528,1.8928557419197551,2.126214605291626,1.688613287245187,1.6948663162127726,-0.2488505650410954,-0.0808421119246019,-0.0870838517933741,0.5325484910984589,0.6283783781599586,-0.116719602161266,2.000973603507464,0.968391642726023,0.3792622479853322,1.472062839027278,0.7913465027424389,2.0939822485628956,0.5370245241196142,1.453181297396638,0.8009887361048069,1.0,0.0712470499879101,1.6981539342156955,0.7799673017919746,0.3474859459676045,-0.0239983698483844,84.75382003395586,2
-0.390588043477919,-0.4011052608532058,-0.1975004029972611,-0.3983123608109677,-0.3120834799072994,0.2180722952953663,-0.8028368873877393,-0.6858174425807402,-0.1338685080771779,-0.1234394323508199,-0.2407747030897775,-0.0950446053589397,-0.090011021875791,-0.3027091740848608,0.6283783781599586,-0.5099325963812361,-0.5170036241816194,-0.7869808429902854,-0.7890770414254814,-0.0406466845237536,-0.2559833300858492,-0.7467842563249948,-0.2851544614521638,-0.2822237360583603,0.8009887361048069,1.0,0.0712470499879101,-0.112665428165607,0.7799673017919746,-0.1444713585832597,-0.1399759493021809,78.94570374275172,2
0.1111691445118469,0.2079558365293459,-0.0638788971282527,0.1506091920815675,0.2494353027659092,0.7304768667148275,0.3967850293247,0.8280942433510502,0.5294635339423599,0.5482309598056554,0.0375870865817671,-0.0656863972864681,-0.0796338997300393,-0.4261200130599649,1.8432091564415387,1.0220091501717,-0.0878312760104973,-0.0669913114551997,-0.2680240427744038,0.2890411967249012,0.70763915275024,1.0838419850303045,-0.4235392215477844,-0.1575795544118252,2.1603810482369648,1.0,0.0712470499879101,0.5660785513357065,2.1192627966716073,0.6472860371480514,-0.127787043602821,93.2491500728509,2
1.9635224687493085,4.925981820492271,0.8263494563385925,2.2018040770510083,1.9768943612893843,0.3670183870479069,-0.8418469165552918,-0.7658930904202762,-0.0291148365848428,-0.0165849176305938,1.5482517671781928,-0.0645782530963731,-0.0889117583766027,-0.9775187591524618,-0.9913959928821482,-0.5122445841083137,-0.5095229463653916,-0.7816241465529675,-0.7575437766342806,1.9370284130779156,-1.9438629721784992,-1.7232374744410652,-0.9834580175136932,-0.2846965907994043,-1.0115343467380704,1.0,0.0712470499879101,-0.0038917243867073,-1.005760024714203,0.6648418738480555,-0.1404356670706562,77.25561000773794,2
0.2293815603331932,-0.3283198365887662,0.3297917121137566,0.6618385268285911,0.5170198459950325,0.9846038776406316,-0.2008235349816304,-0.0031898391833205,0.5233160820230559,0.542059586543945,-0.1901486855400811,-0.0569117266423771,0.3381049444908879,0.385285890509297,0.6283783781599586,-0.4436219327024763,-0.2542839852640087,-0.1234166941292414,-0.2701963709697146,-0.8559427555387886,-1.6335954963828017,0.2483097317414048,0.4112892053742854,-0.1145125538744633,0.8009887361048069,1.0,0.0712470499879101,0.5598956895143729,0.7799673017919746,0.7754192916670225,-0.1341608546878742,72.64319495533368,2
-0.4503876538258294,-0.3175490620478843,-0.4042362349720995,-0.5549546455129016,-0.312387514863626,-1.433722000099265,-0.6231141991682068,-0.7627755478449746,-1.2897552894132098,-1.323017172920615,-0.277497279158581,-0.0994577889878715,-0.0920468877387095,-0.254818465121336,-0.9913959928821482,-0.499541038823176,-0.4687403714694867,-0.1293265602309907,0.0287138174110242,0.6118883880269648,0.4297047485864101,-0.6232787007822203,-0.2812676492161942,-0.2645208792537618,-1.0115343467380704,-1.0,0.0712470499879101,-1.3550903146508189,-1.005760024714203,-0.4137234712676731,-0.132782256344695,75.4140127388535,0
0.8610947883754674,0.0457143840241541,0.6103541383493771,0.4298387480930644,-0.040005975656907,-1.1321682633873018,-0.4453640025298484,-0.6542668781851918,-1.0503847382964548,-1.071423094710913,0.0044042990495376,-0.0960609438152757,-0.0921258002820868,-0.8924925162455948,0.2234347853994319,-0.3436736148797396,-0.4268747799486622,-0.3899926584518708,-0.3985009060939196,1.5322489603804408,0.3816234802639187,-0.3182480945482032,-0.8960022680160187,-0.2758792545332395,0.3478579653940876,-1.0,0.0712470499879101,-1.0912068311353782,0.3335354701654303,-0.1978263666393387,-0.1307111655599648,71.12992855252712,0
1.2446942220451471,0.1520486914188792,1.2827352766241316,1.3062164977980015,0.4210461447813045,-1.091528499656511,0.4098436360910024,0.2717253518400072,-0.7727130738141794,-0.7816870525086541,-0.0780962505802716,-0.0143509331600663,-0.0336131321122119,0.771569568343627,-0.9913959928821482,0.183485598203344,-0.1381979113333247,0.9430657185491604,0.7250678777111964,0.1152491164901532,-0.9514231092635628,-0.0444417580800975,0.6829345194856916,0.0204066262147248,-1.0115343467380704,-1.0,0.0712470499879101,-0.789515627055415,-1.005760024714203,1.1894509247952598,-0.1356409845111977,85.54720133667502,0
0.1218573452807932,-0.1229580018307168,0.182530271077416,-0.0788310721980452,-0.2719846473340171,-1.491992384934555,-0.7689105895266468,-0.9405872296194244,-1.3469972011252829,-1.383436371018639,-0.1456856903083783,-0.0857680903258133,-0.09048152591148,-0.4045098399089462,-0.9913959928821482,-0.5203025786841405,-0.4873006549185291,-0.5858633003453693,-0.5878042079337115,-0.5901977958720823,0.6853895961305656,-0.9930263932488732,-0.4152015234345195,-0.2737397262232025,-1.0115343467380704,-1.0,0.0712470499879101,-1.418727724795004,-1.005760024714203,0.2132053713732877,-0.1387041535145135,75.19449589838581,0
0.2668147215928123,-0.4567203218664749,0.3650489857838841,-0.1046686970740607,-0.4775122778107228,-0.0468369766867078,1.5826709609046183,0.6203869577362863,0.6252346272877669,0.6442483496966177,-0.2604066958594788,-0.0975754316327437,-0.0904327741143345,-0.2948471586929803,-0.9913959928821482,0.3937797051477315,0.9568189179033928,0.9250250645598478,1.9185235693823288,-1.5269955215835105,0.7379846816766995,-1.1712782363512129,-0.303703619809293,0.227637226949367,-1.0115343467380704,-1.0,0.0712470499879101,0.6621485432326563,-1.005760024714203,-0.2858691576666079,0.0308905986142337,69.96356064549714,0
0.4914863490607845,-0.2314927807945249,0.5807593965111186,0.1465678534669665,-0.3671138070023937,-0.9807062726325876,-0.669095403600287,-0.6618842884771023,-0.976998912836841,-0.9946298613074612,-0.1965837526971273,-0.104113792831177,-0.0930299157861666,-0.9241004185754816,-0.9913959928821482,-0.5227036253670558,-0.4906868068536956,-0.4024230565909132,-0.4861397674031657,-0.806154688124973,0.9396523751757891,-0.1189518941854983,-0.9281390659388692,-0.2826789767146979,-1.0115343467380704,-1.0,0.0712470499879101,-1.0110171833329828,-1.005760024714203,-0.8967635430995697,-0.1306546524404848,69.15358888603036,0
-1.6311555747478743,0.8569817501677662,-2.0011770517823892,-1.12521446629053,0.487393328584107,4.462993567975924,3.0738896734437877,5.199005554737621,5.365725433778387,5.132298836787871,0.0901172889652554,-0.0787891328423097,-0.0860311179987872,-0.6878066636781643,-0.5864524001216215,4.5762650102877815,2.5152228499580844,4.867355138001142,3.9043080153624614,0.042550638219361,0.7367288434768071,0.2619142305457732,-0.6854673050617516,0.272724529893757,-0.5584035760273511,-1.0,0.0712470499879101,4.907284063820574,-0.559328193087658,0.3965568550380925,-0.0098674243583825,87.3855702094647,0
-2.294819220093043,-0.9143222986454042,-1.985898899858667,-2.2290387532252103,-0.9111336888559224,1.1863768134797674,3.89269356882644,3.4622422877418755,3.8681479588950745,3.7662723397207114,-0.3394173016069864,-0.1056685633365481,-0.0889840581150142,2.838023892159241,2.653096341962592,0.3558725729458745,6.527065380575889,3.783218404180881,2.4441157713995625,2.4543834912618747,0.4874999069251561,2.009333414850281,2.8563327245043775,11.285549187835556,-0.3318381906719914,-1.0,0.0712470499879101,3.6634402500802303,-0.336112277274386,-1.1818661139353617,2.8498773711662,97.47343565525384,0
1.3867025964084856,-0.3219160235367522,1.5502631956241293,0.8264826619874349,-0.4342379690269194,0.1287515763950872,-0.900354167915399,-0.8283143550441201,-0.2054393578123378,-0.1966180572340748,-0.1798723219631769,-0.0814135783110665,-0.0889511105296991,-0.1176815901943521,-0.9913959928821482,-0.5193150122762661,-0.5163821788408082,-0.8100459204836946,-0.8206100095360745,-0.617890740987068,0.9244703959356684,-0.6256919108075455,-0.1337826006185793,-0.2811542153532562,-1.0115343467380704,1.0,0.0712470499879101,-0.1873339423602445,-1.005760024714203,0.3331822345886383,-0.1404372117521846,83.82536382536382,2
-2.3039489513222176,-0.8980432433078079,-2.007302557914977,-2.241405249385889,-0.9063366928783269,0.8755489673479872,3.532234379885053,3.144455728172282,3.181591715753888,3.124959625092216,-0.3377687809290026,-0.1044331788703557,-0.0901142262206941,2.6928284563824523,-0.5864524001216215,0.4981990664117109,5.462389540648499,3.304155511592721,2.00819692187937,1.6169903590568626,0.5934753037727298,2.2551351322005284,2.7470290803678763,9.179894612414031,-0.5584035760273511,-1.0,0.0712470499879101,3.0655062614714,-0.559328193087658,-0.9464915073725167,1.664812182435802,90.60082304526748,0
0.0552155123504561,-0.5221582650538004,0.2157575805059301,0.1129708584509171,-0.0630112873522779,2.1494929247407764,1.8623124480408648,2.1192773575042403,2.448465718269392,2.428992280270011,-0.2768729989881247,-0.0112250788509022,0.019639052480578,3.4829541219506743,-0.5864524001216215,6.719806749743026,1.357613625345809,1.0377352340560928,1.7277066923111548,-0.2480594803527878,-1.1073305920370855,-0.4342854156715383,3.3945326984645328,3.3086630584885075,-0.5584035760273511,-1.0,0.0712470499879101,2.4060628871247727,-0.559328193087658,1.211949259117166,-0.1160314513202602,82.47928812519177,0
-1.9161552130784003,-0.1171232421384581,-1.7941563125455695,-1.552168419794408,-0.2443174663083067,-0.8093919890598941,-0.9835962149248152,-0.9518066770026848,-0.8805537857598981,-0.8939465482070471,-0.2361222274655307,-0.1055277112926555,-0.0935497753145215,-0.9340875662773888,-0.9913959928821482,-0.5270033240997868,-0.523664688672804,-0.7527430899527865,-0.7787912338440113,-0.4392407312957687,0.1738692373727308,0.4727634077340318,-0.9382917081386832,-0.285529563826602,-1.0115343467380704,-1.0,0.0712470499879101,-0.9061302136546944,-1.005760024714203,-1.1506060110738203,-0.1394377684288698,79.91675338189386,0
-0.1189841914866208,-0.7242174817321962,0.1049286555953879,-0.497298214611261,-0.7230711775370827,0.3895246868212372,-0.951136098899433,-0.7598637881174114,-0.0193822419940311,-0.0066722829224068,-0.3091255113001819,-0.0949860563152085,-0.0895203472822997,1.0359037011152428,0.6283783781599586,-0.5238023824438526,-0.5182572058500083,-0.8267972431810058,-0.8327767520276143,-1.1975526634795228,0.6466048680554061,0.425920942222025,1.0984265929108337,-0.2774932871311346,0.8009887361048069,1.0,0.0712470499879101,0.0061835770642187,0.7799673017919746,-0.1415197900070692,-0.140097897237186,77.61596268463333,2
-0.1036082290132418,-0.8449351573647093,0.1637263917866813,-0.5090989233658958,-0.793641069066642,0.2459517897669199,-0.9060977476986952,-0.7214059910618515,-0.1210717379229698,-0.11036998092949,-0.3331922237572502,-0.0910704898348174,-0.0872325640672818,4.416472206533081,0.6283783781599586,-0.5213292655270398,-0.5196660200837733,-0.812367493287998,-0.824716372363561,-0.8559984131198098,0.2189618798091432,0.7168020169725976,4.586238709610929,-0.2676915769298179,0.8009887361048069,1.0,-14.0356688476182,-0.0993449317910249,2.69324658019145,0.0317621508705569,-0.14039187446934,75.17774343122102,2
0.0637657830462703,0.493522234744284,-0.227059531427772,-0.0868059803975244,0.10653887329246,-0.6650664338202388,0.0891835641158948,-0.0066532720518309,-0.5867593705674867,-0.5888993022014565,-0.2080851567237215,-0.0985931348732194,-0.0916550585806013,-0.6493455369577783,-0.9913959928821482,-0.0784536698955174,-0.3285171753346265,0.6159055516185852,0.2896605989501076,-1.3749679475351997,0.4604063746396198,0.2415700710201151,-0.653809090530977,-0.2461435542769643,-1.0115343467380704,-1.0,0.0712470499879101,-0.5900593314303719,-1.005760024714203,-0.3520430765965164,-0.1156123367617695,74.01360544217687,0
0.0800480045787415,-0.4204444304887753,0.2051447849971442,-0.2352578188405336,-0.4895723310783402,1.0099771920173182,-0.3685050321449513,-0.2290591538140734,0.5048711634753733,0.5235370028977951,-0.2263531447816069,-0.0924856007241506,-0.0918342034433053,-0.2713497754600116,0.2234347853994319,-0.4886433556249014,-0.4275927963231176,-0.5425980505435173,-0.5301318707021273,-0.9957175681764334,0.958393058505913,-0.1895086983354302,-0.2570694241045271,-0.2502895193014592,0.3478579653940876,1.0,0.0712470499879101,0.5413327319309514,0.3335354701654303,-0.025969677201174,-0.1330264977567591,66.01719197707736,2
-0.0172259319742301,-0.7064248381646291,0.1650440878733427,-0.2030618212108792,-0.4111650940079204,1.1687359227842269,-0.749722076915185,-0.4892976166463376,0.5648265089445441,0.5837125064242672,-0.2640056566697284,-0.0887777026748887,-0.090803046538946,0.3293111320389116,-0.9913959928821482,-0.4860772495978814,-0.4965291290656969,-0.6359599146673428,-0.6761964759760186,0.1263709630832781,-1.085814908125528,-0.1291290433019371,0.297919893324839,-0.2670978497376156,-1.0115343467380704,1.0,0.0712470499879101,0.6016071301301934,-1.005760024714203,0.116124465411361,-0.1389606330644694,74.17384494909945,2
-0.3035024219172689,-0.5969103401432462,-0.0801186110611599,-0.4298886865197167,-0.4630199448924936,0.2782629967277791,-0.619418511726574,-0.6231633419647984,-0.0703170479927927,-0.0585777971841022,-0.2751421856154092,-0.0982560429343574,-0.0897022000409561,-0.1861552163921215,0.6283783781599586,-0.475610021089703,-0.4989758639266973,-0.7391138952278298,-0.716735043162618,0.0468930047784035,-0.151549984931543,-1.6425020245965738,-0.1658451871852282,-0.2746683533592519,0.8009887361048069,1.0,0.0712470499879101,-0.0466026231350485,0.7799673017919746,-0.3294144458206095,-0.1374509139913081,75.78291352895351,2
0.1387035769865272,-0.7244576150887485,0.3572140360794113,-0.282299000314489,-0.6928028085516902,0.0929158747353173,-0.8792806555081755,-0.8249053066769609,-0.2299920851250561,-0.2217547582654709,-0.3069796685599622,-0.0996412792489283,-0.0915595193257645,0.3417643351815294,0.6283783781599586,-0.4888129937539948,-0.5099202326023282,-0.7790678831055062,-0.7953812260994595,-0.8953345161915544,0.4380206461323907,-0.5900288934792849,0.363098460509905,-0.2750923539701859,0.8009887361048069,1.0,0.0712470499879101,-0.2130154644355378,0.7799673017919746,-0.4275529867277088,-0.1384709588919665,73.23711340206185,2
1.4968154310591426,-0.2492379273577342,1.615328891579001,1.0269061150142127,-0.2446552829264473,-0.0872617172013447,-1.0200954766346193,-0.8751208996209251,-0.36627321640053,-0.3615802325286513,-0.1081634545973209,-0.0970051889671327,-0.0903337526753752,-0.8068611085144163,-0.9913959928821482,-0.5266904786624981,-0.5252670449139218,-0.8217400628806881,-0.8303354892300631,-0.4579930236001189,0.5038612293396842,1.2386294607148634,-0.8101436976863693,-0.285538704165071,-1.0115343467380704,1.0,0.0712470499879101,-0.3561812931266557,-1.005760024714203,-0.2513877581924154,-0.1407215240785757,86.88239936858722,2
-0.0311812716520748,-0.8229864636347196,0.2450674150822078,-0.4561843297720537,-0.8044512008471393,0.002218491083659,-0.8096567283780439,-0.6448925195495215,-0.2902119185072996,-0.283477307094217,-0.3262218931068913,-0.087227134925989,-0.0598701283038911,3.161225990610821,3.462983527483645,-0.5111625087160991,-0.5025936028585425,-0.6968945373072085,-0.7448074188331277,0.4032833409907482,0.6006055717866748,1.047565608043374,3.282931879374833,-0.2415169151667093,0.1212925800387279,1.0,0.0712470499879101,-0.2761476998616939,0.1103195543521582,0.1678421978982703,-0.1394687467780346,125.75945793337098,2
3.371362855437918,0.3399278828433352,3.155145802362134,2.6537873877079816,0.3345988721991398,1.3067534047631622,1.287513364492145,1.5374524938177687,1.4132912404815197,1.425515596515922,0.059241506301624,0.007707426347849,-0.0258740175172697,0.4780586743854985,1.8432091564415387,0.4618338610277953,1.0887535699931157,0.9109793903139056,0.4100808634418847,1.484336290146864,0.71047644032646,1.502054929867531,0.4951962560641835,0.7894095644799384,2.1603810482369648,1.0,0.0712470499879101,1.435163462497385,2.1192627966716073,1.3344733570224632,-0.1230623617399372,95.3191489361702,2
0.4633351446936228,-0.4832651310631246,0.5260572022107997,0.0530782201825306,-0.4324475409507745,0.950561487812584,1.316657940563443,1.5962240063224429,1.1697565163793997,1.1857304559948822,-0.2300812876843562,-0.0543760243889828,-0.0824341172213166,1.3099230832439372,1.8432091564415387,-0.3561804499205002,1.2543425765944178,1.2663643850946515,0.8353917483469342,0.9402552435604916,0.5751354237130212,1.774601978767949,1.32093658755754,1.5119811212171366,2.1603810482369648,1.0,0.0712470499879101,1.199537783037698,2.1192627966716073,0.8084127599793379,-0.0986848562913329,98.06639912440716,2
-0.2177715610401911,-0.8721985322056681,0.1068161662060109,-0.5997057351052497,-0.8532657021684477,-0.0165035489339062,-0.9073299937978556,-0.7649919892782832,-0.3105597284816545,-0.3043555505908619,-0.323290541932339,-0.1003436606929131,-0.0914767211277939,1.1540775292926615,1.438265563681012,-0.4942056548649822,-0.5157410222906043,-0.8013262630870502,-0.8057400916655004,0.258523245942137,0.503048106422463,0.2583599639667262,1.21474128223643,-0.2746611280510229,1.7072502775262457,1.0,0.0712470499879101,-0.2975259528912486,1.6728309650450623,-0.4832092074586816,-0.1391590739706567,88.1377151799687,2
2.215037368177602,0.0645854791649827,1.7650832711576736,2.0408240889027365,0.8845981081937562,0.1533680509839834,-0.7679439882366957,-0.6991344065386665,-0.177506991532864,-0.1680414955474977,-0.2699334815022023,-0.1038646475323563,-0.0916708391804769,-0.7008747741982605,1.0333219709204853,-0.52061862675577,-0.5182141284638765,-0.7608769702230636,-0.7784500477282361,0.6093751268375509,-1.9009992740804496,-0.6355493090015444,-0.6968780534549149,-0.2841804583437709,1.2541195068155262,1.0,0.0712470499879101,-0.1581585446262861,1.2263991334185185,-0.8603155338661249,-0.1385094157330141,82.62398320650748,2
-0.0590588803943367,0.3784392150051955,-0.4013515489445436,-0.1657737369268275,0.1728522754334484,-1.48512453277357,-0.1418631241991793,-0.4098602048904148,-1.2316936854103573,-1.2618335372640377,0.0474329423477298,-0.0825476792444661,-0.090961586545177,-0.7000341504463476,0.2234347853994319,0.0657258687295291,-0.2929793490713871,-0.0727937061445571,-0.1680764461395732,1.280402898649634,0.6485914348035792,-0.2386574665740796,-0.703767719550192,-0.2439682063597976,0.3478579653940876,-1.0,0.0712470499879101,-1.2907534727006469,0.3335354701654303,0.303886846567667,-0.1294065672029033,68.53646098929117,0
-0.2275915974316203,-0.2567720771875899,-0.018934776550777,-0.1182206525616894,-0.1302705760240598,0.931117689179619,-0.8956532898837561,-0.6844984590353079,0.3785870746601936,0.3964828766085817,-0.1766852150972255,-0.0912360436673965,-0.088835290070285,-0.4702317276945537,0.6283783781599586,-0.5105485232982667,-0.5189365831687094,-0.801208876622859,-0.8065739650560051,2.2069323546672455,-0.5581397512668264,-0.9708732139670851,-0.4650689746097989,-0.2834848462594366,0.8009887361048069,1.0,0.0712470499879101,0.4137627621280427,0.7799673017919746,0.0252522119717749,-0.1403326921790088,78.12206572769954,2
-0.1264547377167755,-0.069026665073067,-0.1211808701941467,-0.0702634343350911,0.0268479330731062,-1.3340653877354884,-0.4600649862168755,-0.6166387676381545,-1.1948841557350778,-1.2230970499668306,-0.3122952193280012,-0.096988493950312,-0.0902396923932575,0.9432409772150264,-0.9913959928821482,-0.4949525798015564,-0.4781420224222756,-0.2833078012259638,-0.242835590257916,0.4396256869568214,0.2545993338925745,-0.7042469077533511,0.8258206943951174,-0.2434544770337682,-1.0115343467380704,-1.0,0.0712470499879101,-1.2500754742316038,-1.005760024714203,-0.2504037440946646,-0.1355388312956699,72.56692913385827,0
-2.102547546978676,0.9958023067959144,-2.3231578712284726,-1.164199912792714,0.7439312684000345,-0.1962496906000907,1.5611609317955866,1.5837193855478098,0.5026487041773496,0.5213045886488908,0.3059014676404609,-0.0942787461068157,-0.0881026014659301,-0.984622598647474,-0.9913959928821482,0.9930001887907132,1.403070069842462,0.8028723478710942,0.3699896217342289,-0.7905957688152251,0.0775772990089276,1.2295929881087402,-0.9902723746453476,-0.1681882992149472,-1.0115343467380704,-1.0,0.0712470499879101,0.5390948544769197,-1.005760024714203,-0.1068256617595182,0.0314953407779848,89.5104895104895,0
-0.3450159188360304,-0.6279573585498195,-0.0719275272792111,-0.5585110234937505,-0.6320633806100208,-0.2858143113011335,-0.91663640013943,-0.8571365850017623,-0.5044445853281824,-0.5038735312101766,-0.2962784583749588,-0.0995624618609399,-0.0905634840229324,0.0457616975139544,0.6283783781599586,-0.524477418949378,-0.521783314405472,-0.820608945704792,-0.8232862081806045,-0.4402519971658513,0.4716332528904866,-0.5181350452432628,0.0702272304441722,-0.2830259895721089,0.8009887361048069,1.0,0.0712470499879101,-0.50241586653215,0.7799673017919746,-0.4215786078104798,-0.1401643220137208,78.55232100708103,2
2.5321432869716713,0.9348470580599272,2.40117434693762,2.5565527806406823,0.9278724169775596,0.1979927920258615,-0.7647412719962023,-0.5919301667536632,-0.1449599618786125,-0.1347708524781876,0.6403766351144424,-0.0657287829030705,-0.0861444224425742,-0.8464028481884968,-0.5864524001216215,-0.4907853851175822,-0.5031597673014043,-0.6606213024340756,-0.6867248806054412,-1.3826592718394952,-0.0654810291840851,0.6848165046524292,-0.8524560044405294,-0.2829668718528109,-0.5584035760273511,1.0,0.0712470499879101,-0.124218194448072,-0.559328193087658,0.6466055941277247,-0.1402308266040402,82.32156862745099,2
-0.0364085444447844,-0.301867692685329,0.0708466243809314,-0.2529588819724859,-0.3843762361893754,0.7968591644594104,-0.3328785303849695,-0.1627553305101457,0.3559645485026433,0.3736782934742471,-0.2281269682694104,-0.0888376787522989,-0.0889461145280332,-0.0858131275586844,1.0333219709204853,-0.4407696912195473,-0.4522826391111238,1.014898220871795,1.3686133986037998,-0.8786379549767609,0.804228712050295,-0.5768717918915748,-0.086797373083487,-0.2532975667454196,1.2541195068155262,1.0,0.0712470499879101,0.3908213227778718,1.2263991334185185,0.114044047126907,-0.1360842671165521,84.08759124087591,2
0.0831018006656435,-0.0639777037993649,0.0869438846828482,-0.1261147339888766,-0.2406014835087608,1.1112967519502115,1.024566947469166,1.3517274792935998,1.111567934152118,1.1282218023886454,-0.0268289497546025,-0.0949711241754734,-0.0919394523371331,-0.8474065990798254,-0.9913959928821482,0.2844623276685882,0.180248125810112,0.6355306341777006,0.5888713734901889,-0.757151262099954,0.8996037578382857,-0.7628415014248733,-0.8505779574764566,-0.2025848564954762,-1.0115343467380704,-1.0,0.0712470499879101,1.1428142644051351,-1.005760024714203,-0.1407690477772328,-0.0745553596308467,65.22292993630573,0
-0.2025902496944233,0.2154283980403586,-0.2072228633123569,-0.3154918614690783,-0.1990162578156601,0.8129642954997096,0.8119207089577133,1.389134951056271,0.778498265176121,0.7974152104380773,-0.2580353273401128,-0.1067094893616702,-0.0931019966905318,-0.9746271551815864,-0.9913959928821482,1.7493571033799968,0.3808450018050006,0.4313158749447548,0.437658482771989,-1.2785506123210308,0.83148126523024,0.4847709317772593,-0.9799670701573038,-0.2267354807122605,-1.0115343467380704,-1.0,0.0712470499879101,0.8149107748451379,-1.005760024714203,-1.471162988875604,0.4445597268661344,85.09147127029117,0
0.6927857774261887,-0.655005261196346,0.9055892885770104,0.1812155965228123,-0.6317931273155083,-1.2123594027662308,-0.6791007592303117,-0.8635439110354022,-1.141442200533979,-1.1669294087975532,-0.2969660755696829,-0.1040753087055924,-0.0928060701950194,-0.4865740548662838,-0.9913959928821482,-0.4788819518846481,-0.4695443770544568,-0.5994873963170891,-0.5721908872954693,-0.8230087811351864,0.5255006275326862,-0.8536408842935388,-0.4850308910566518,-0.2703698443915021,-1.0115343467380704,-1.0,0.0712470499879101,-1.191167972043863,-1.005760024714203,-0.8910064149761461,-0.1248585885073585,73.08641975308642,0
-0.1466000444778346,-0.7663290068314017,0.1457416208741416,-0.5099610756036774,-0.7776623430285944,0.4252827613051386,-0.930330513008994,-0.79405683965738,0.0075847934572151,0.0207802032520018,-0.3103815664668032,-0.0979923155011325,-0.0911421128569598,0.7098682849699263,0.2234347853994319,-0.5116586570727795,-0.5160776107859003,-0.8231695746448653,-0.8292012827924612,-0.2116238276866397,0.8190081772565698,-0.4648179594068065,0.7613796457706589,-0.2770913691211173,0.3478579653940876,1.0,0.0712470499879101,0.034072971133868,0.3335354701654303,-0.3122137932619886,-0.1395943407834018,71.47880041365046,2
0.2434306105867421,0.4436383776945172,-0.1716806823802485,0.1761504521258457,0.3837174084767746,-1.4350262215294165,0.7023868667079619,0.0668388083128485,-0.8846883465103329,-0.8982572340567776,0.0226783206729049,-0.0969275909818506,-0.0924296218160293,-0.9194869899416324,-0.9913959928821482,0.5511302946563953,0.291008605667568,0.3007921610406209,0.7458590488091028,-0.345360853442516,0.6168733977193317,-0.7840827429559034,-0.9252511850552604,-0.2139331324308881,-1.0115343467380704,-1.0,0.0712470499879101,-0.910615096458856,-1.005760024714203,-0.2468259320170976,-0.0514093669921129,67.64766839378238,0
-0.118142885165147,-0.1113354214969433,-0.0207866737536524,-0.3031253653083994,-0.3603574746395829,-2.0517767483956333,-0.7549596370419615,-1.0410315088253157,-1.7348670638373538,-1.7954716169365987,-0.2464589093953446,-0.1030392806391694,-0.0928418045262388,-0.748711045580756,-0.9913959928821482,-0.5252516599965987,-0.4889661955568247,-0.5824086486225175,-0.6136188661899808,2.850813855564605,0.3403118023546111,-1.2591246808072418,-0.7520212937181632,-0.2797325483879577,-1.0115343467380704,-1.0,0.0712470499879101,-1.8555029638927565,-1.005760024714203,-0.7517119590125756,-0.1322161458065329,69.24265842349304,0
-0.2772742111452229,-0.622797788644085,-0.0806171987696263,-0.5697459448423412,-0.6379076081038522,0.4751613555474329,-0.4613197349223232,-0.5117675949955167,0.096840414267861,0.111502546306374,-0.3105721974241027,-0.0961588119490901,-0.0900790624862779,0.9634218062686662,0.6283783781599586,-0.3622037003486403,-0.375298141533753,-0.623753000003734,-0.6141058239743495,1.4248767949071752,0.7877772268659614,-1.417276930810111,0.9868359168891584,-0.1540032174473282,0.8009887361048069,1.0,0.0712470499879101,0.1260974563881574,0.7799673017919746,-0.2031887144312566,-0.1253336265625698,75.84199584199584,2
-0.2505253700571135,-0.6149089037639127,-0.0385933776274542,-0.5637108791778703,-0.670202876798088,0.5727951082757299,-0.5225546564205366,-0.4227779886524995,0.1576606011757279,0.1731995498812658,-0.2554427763351191,-0.0958570870839385,-0.0895804632759112,-0.2283178530879316,1.0333219709204853,-0.4514705424579184,-0.418936087136084,-0.4904810534692195,-0.5177243342661385,0.0669762990767926,0.8959819757990878,0.0247574595643166,-0.2196646330108367,-0.2452792920669088,1.2541195068155262,1.0,0.0712470499879101,0.1885560896833047,1.2263991334185185,-0.1867887198604244,-0.1300774350322471,82.08550573514077,2
-1.691335645711369,0.3400764428272284,-1.7192969294601073,-1.2134503593759849,0.1093765328848405,-0.0666094336529396,0.7796074878624563,1.0591497202036462,0.1241983552463465,0.1392671555315128,-0.2008168972021166,-0.0998344832005869,-0.0926093178517625,-0.7268073761043705,-0.9913959928821482,0.8147416292816259,0.6624910432491389,0.1088729085995272,0.2120382156315647,0.0366477185043334,-0.077025816106323,0.1163623857332261,-0.728551222672327,-0.0865609963643314,-1.0115343467380704,-1.0,0.0712470499879101,0.1542171992654138,-1.005760024714203,-0.4424204058836252,0.0318821913117561,76.71924290220821,0
-0.2243253318822382,-0.0485141965772476,-0.0374181351717832,0.5849453241214498,0.7689296981424346,0.5407470470274036,-0.6627488210086799,-0.4956878876872898,0.1146829771104119,0.1296126104749296,0.2112393687458862,0.1756490623662925,0.0342442997984192,1.393325719971208,-0.5864524001216215,-0.4588247741065297,-0.4646243052993756,-0.6828747453664121,-0.6784903700118389,0.569223397756369,-2.6591268140456057,-0.9041765321754642,1.3548882687548145,-0.2201559555298737,-0.5584035760273511,1.0,0.0712470499879101,0.1444414649905054,-0.559328193087658,1.9509805349458056,-0.1406737157688909,77.95939614783967,2
-0.2615328782681048,-0.5609795244503736,0.0405752277954684,-0.3428382527612116,-0.4683574474591142,-1.396512070188004,-0.5323794364780051,-0.781799930376867,-1.250625353818351,-1.2817720627241638,-0.3327719213060237,-0.1004578388297819,-0.0927024689910728,2.5838543357690713,0.2234347853994319,-0.5037375030348205,-0.5032214401764893,-0.4753153822549021,-0.3233992640340497,0.4950064090332122,-1.0218147497443109,-0.0849199146512976,2.674318595555256,-0.2484427869246603,0.3478579653940876,-1.0,0.0712470499879101,-1.3117079007467984,0.3335354701654303,-0.4926962088156292,-0.1371782560878163,69.45736434108527,0
-0.4247780607060656,-0.8575684903348805,-0.1005250937005367,-0.7232090431674556,-0.8114440048426486,-0.1496370095595399,-1.0158855349182312,-0.8839319558291366,-0.4109667683700145,-0.4075485795711138,-0.3326635315350075,-0.0988555831400098,-0.0908082088893534,2.931151643227526,1.0333219709204853,-0.5265193793756393,-0.5251311188223916,-0.8395075201142749,-0.8428372854110576,-0.7890204334740399,0.0848310589828535,1.1257076211957835,3.0566287675601576,-0.2817269970614021,1.2541195068155262,1.0,0.0712470499879101,-0.4033629080923321,1.2263991334185185,-0.3701893102325795,-0.1406592627958303,79.09371781668384,2
0.4568770472352652,-0.228484940979929,0.5502387060714224,0.2284992583136437,-0.2354328892512105,-1.325156978638047,0.7263366801625111,-0.4409298645308909,-0.7961146079748963,-0.8060188936736399,0.0066958055180558,-0.0806753658870419,-0.0875702514644335,-0.6198980831544104,-0.5864524001216215,-0.2062134571126177,0.2102722147416421,0.2499944036665808,1.1003990088857318,0.2777221084875049,0.6182462928624703,-1.406269272678648,-0.6186872367209144,-0.129698637652424,-0.5584035760273511,-1.0,0.0712470499879101,-0.8147618147972933,-0.559328193087658,0.3516043213996879,-0.1070368079206259,68.80632411067194,0
-0.3567921364841836,-0.7508514419368039,-0.0786940747512557,-0.7058043448672408,-0.8103292100027847,0.5169227388921864,-1.0191850468777668,-0.8042288231721496,0.0706464203248461,0.0849003547231642,-0.2919954305928242,-0.1037246356375116,-0.091627095216984,-0.506666420678183,1.0333219709204853,-0.5268213759233844,-0.5249612054641511,-0.8274754527652111,-0.8277989001264284,-0.3339526917953326,1.0353186381306172,0.3722432644465458,-0.4954599877106672,-0.2851718844793887,1.2541195068155262,1.0,0.0712470499879101,0.0991359524877759,1.2263991334185185,-0.8406470861157748,-0.1403231324974813,85.17926231622388,2
-0.2204352175271825,-0.4172453416832667,0.0383315831073693,0.0413044536853264,0.0154297313799558,0.2142552359341369,-0.1422061502906766,0.0181173602275215,-0.0231834198345059,-0.0105434719146385,-0.3070297552972805,-0.0958148415843188,-0.0901317527090282,0.8367134551103274,1.438265563681012,-0.0971110470111515,-0.4015729313613719,-0.6183761514121356,-0.6389789151646122,0.3318375260758386,-2.1219323649553554,-0.5935634598355775,0.8689292048058067,-0.183347827944497,1.7072502775262457,1.0,0.0712470499879101,0.0022491716905063,1.6728309650450623,-0.1845232840285699,-0.1283772242711383,88.68360277136259,2
0.4427049163158917,-0.275135547481416,0.4578219129663912,0.7113314537287377,0.4576316845259252,0.8751222692546887,-0.6460675055289947,-0.4061749376074616,0.3608520488790442,0.3786062658208116,-0.2293338565612767,-0.0910819968781795,-0.0814605433141465,-0.189408368786463,1.438265563681012,-0.4962322536909281,-0.4783175089944267,-0.0701403278590291,-0.2575611819536127,-0.0254147087014433,-1.612071843456686,0.9621240314066956,-0.1830836546831478,-0.266660734625101,1.7072502775262457,1.0,0.0712470499879101,0.3957800131747482,1.6728309650450623,0.0313116485857617,-0.1373676444737356,87.6121337827327,2
-0.2955235084190999,-0.6566730055119196,-0.0047606402672308,-0.5665667584655217,-0.7058763116737292,0.5509161781750227,-0.7480541217944813,-0.6235767394229855,0.1126541686144502,0.1275538157734634,-0.3099950767290055,-0.0974995891746729,-0.0903711474678258,0.7562054910215198,1.0333219709204853,-0.4509864868046668,-0.4920954588507124,-0.7727080635555913,-0.7892407538203335,0.9624107364633552,0.4420270735925042,-0.8786644437763201,0.7680741718571811,-0.2581611509243154,1.2541195068155262,1.0,0.0712470499879101,0.1423565098955451,1.2263991334185185,-0.281182599559752,-0.1368963657131642,79.75077881619937,2
0.771545752757082,6.881046941667167,-3.7759000000687153,5.592217752126921,10.59351527687656,0.5576076117092083,2.153845781947102,1.0751786897329512,1.5120181914789137,1.522310947915187,16.719451074106388,15.305511539413814,11.604836336961291,2.49297345382045,-0.9913959928821482,1.273711882222459,1.0936730785917284,5.138634948318754,7.536839593855012,-0.6425758304431279,-1.4221276893374897,-1.2380137031257712,2.3614138966535525,2.1423032129118265,-1.0115343467380704,-1.0,0.0712470499879101,1.5298775843488797,-1.005760024714203,4.7073433680041985,-0.1408228066712708,79.60611557398289,0
-0.0049650898317127,-0.4729892762495932,0.1989480520490612,-0.0284221085452557,-0.2243525041762007,-1.3079942261892634,-0.747143231567647,-0.8520325218638338,-1.2160037258227785,-1.245317262421098,-0.3130712450098321,-0.1015315202205584,-0.0916002665840184,0.2871906390413561,0.2234347853994319,-0.5220992167674082,-0.5115281988590639,-0.5275118793996971,-0.5732146332731879,-0.4229178955539905,-0.9745064345897764,-0.0658303495299858,0.3108013296581884,-0.2764335851351712,0.3478579653940876,-1.0,0.0712470499879101,-1.2734041930876807,0.3335354701654303,-0.5889301603244853,-0.1381046807729439,70.21943573667711,0
0.3492889869011295,-0.3779942500602217,0.4445024984687875,-0.0245693657326694,-0.4524462847446946,-1.8883239056696777,-0.5212496639517443,-0.7238177985782367,-1.5917101277809744,-1.6428560066819944,-0.1167462270283662,-0.0955571734739196,-0.0924828469633268,-0.7544176654309458,-0.9913959928821482,-0.5110457890534726,-0.4351960532364593,-0.3502350294806977,-0.4472208180280108,-1.3144897501047006,0.925891668187698,-0.123011522388751,-0.7567653636991414,-0.2714326603953312,-1.0115343467380704,-1.0,0.0712470499879101,-1.6931524494577794,-1.005760024714203,-0.1708643749334705,-0.1319192832100743,68.32740213523131,0
-2.773457051062002,-0.7061869287317242,-2.49944423957911,-2.491698820916843,-0.7533395465224753,-0.1876454244791334,2.1057476813733507,2.4810444720339992,0.9322820092353976,0.95050073517444,-0.3255222170863067,-0.1064855621706422,-0.0927875240047092,-0.3064300558952322,-0.1815088073610948,-0.2834322962567994,2.716091736066129,0.919950477918378,0.3154315914675305,0.3485696158573704,-0.3281253739833225,2.1602324989746187,-0.2990498916448177,0.8206847896267739,-0.1052728053166317,-1.0,0.0712470499879101,0.9669958812514576,-0.1128963614611138,-1.397888773946344,1.7394230481442254,88.93463715903242,0
-1.9043087124984677,0.7367882005111169,-2.1303112682751992,-0.8284185584342343,0.9820244208654884,-0.1749647436028533,0.4082831391341383,0.3661696818709522,-0.1214542142744783,-0.1107605424317975,0.6345544357617052,-0.0249334467194376,-0.0894329141493938,-0.5866984812672771,-0.9913959928821482,1.0952306608453912,-0.2801077816978117,0.3554891284453754,0.4327983728796952,-1.4126113285383322,-0.3824478242649391,-0.1889083521550736,-0.6042040663542904,-0.2300823691560832,-1.0115343467380704,-1.0,0.0712470499879101,-0.0997429294152657,-1.005760024714203,1.1073323433420443,-0.1371529200978347,71.07455012853471,0
0.529706947466776,0.6392531585004579,-0.1560820097867982,1.40420548807336,1.908722967748623,3.027163878034032,2.695544045009185,3.3661329783872302,3.8577384474342344,3.756621861207456,0.153016705823495,0.4486924637264255,0.5620939596400651,2.8756532398512027,1.438265563681012,6.943844083144389,1.5026800395539,3.948701948757812,5.25297181636741,-1.5231281738783222,-1.8365992370446589,0.640872633706504,2.7838916122105193,3.0758605862104096,1.7072502775262457,-1.0,0.0712470499879101,3.6545101868342034,1.6728309650450623,2.415608935571767,-0.1362634116035168,79.10112359550561,0
-0.5522885590579464,-0.7763251505988225,-0.2624948721366375,-0.850618978557109,-0.8175584856309923,-1.3529605924069013,-0.9021331209041978,-0.9334536087814468,-1.259822585630385,-1.291462317233635,-0.3296342314241295,-0.1036115597511341,-0.0928859091341662,1.020351667301138,0.2234347853994319,-0.5228964262592586,-0.5151878673090935,-0.7243020462522518,-0.7685472034528459,-1.0365018942595796,0.7226318312005209,1.5634727900600447,1.0442496938277652,-0.2748237076973311,0.3478579653940876,-1.0,0.0712470499879101,-1.321895960639628,0.3335354701654303,-0.8251616688774599,-0.1378657135367432,67.36842105263158,0
-0.312962877288143,-0.8473065630483073,0.0005813708949096,-0.668435433810897,-0.8386720242647762,-0.2749017168545788,-1.0390608295411947,-0.9236508090463168,-0.5013984293803624,-0.5007307241899797,-0.3261047732995663,-0.1006612285199136,-0.0905578468116611,1.3651915391700675,1.0333219709204853,-0.5273452345815445,-0.5261291585217025,-0.8538172136100584,-0.8507529736245656,-0.6452495313540051,0.6320638340036749,0.8987254956183703,1.4385710907621123,-0.2843459126171203,1.2541195068155262,1.0,0.0712470499879101,-0.499180076136618,1.2263991334185185,-0.509925637601451,-0.1407520157447294,81.89336801040312,2
-1.3756750378756488,-0.395010342313443,-1.3013023627264846,-1.300069717015599,-0.3957268745588976,-0.6477939103119045,0.3940284126520365,0.3702032805144852,-0.4649347161497908,-0.463130336950865,-0.2550365483082978,-0.1021088894879281,-0.0897958116742178,-0.6486281877577414,-0.9913959928821482,1.0842769577875526,-0.1430567251092159,0.506682068620484,0.3193531448258756,-0.9363236020419816,0.04007304184195,0.6710254856167177,-0.6505773483904845,-0.209037258377836,-1.0115343467380704,-1.0,0.0712470499879101,-0.4604880615437485,-1.005760024714203,-0.6468212487014096,-0.0658890979247056,81.40641158221302,0
-0.0459576413046892,0.2450557816050034,-0.0342129284744989,0.1797607146215559,0.2578469365576087,-1.3649587611538507,0.5922620785159568,-0.8013489365076241,-0.8869190347661364,-0.9005831522322678,0.0032114987402252,-0.0944504241958237,-0.0887999938544328,-0.8621476999132237,2.653096341962592,-0.0900176426244491,0.172059061508131,-0.1933833593528741,1.7267481685933823,2.6762998356219367,-0.1484837896696703,-2.736514767887018,-0.8635797651447213,-0.2078091645994385,-0.3318381906719914,-1.0,0.0712470499879101,-0.9130352205375772,-0.336112277274386,-0.1150877476159669,-0.0777206162773054,67.84099766173031,0
0.3040006230686113,-0.409031904771819,0.4725658637738991,-0.057331150768368,-0.5201447350200592,-1.241581943331989,-0.5544842488218055,-0.857942359869198,-1.1453071477917995,-1.1709886267980434,-0.2690796131676354,-0.1037850785158687,-0.0925132857166364,-0.698517669244417,-0.5864524001216215,-0.5045667359818883,-0.4892713929224763,-0.6062296892968968,-0.5015613835560025,0.9903508237939044,0.6698009667254237,-1.6240806326162591,-0.6967690670639579,-0.2789863290383798,-0.5584035760273511,-1.0,0.0712470499879101,-1.1954222151952272,-0.559328193087658,-0.8490692699638264,-0.1309719479550943,68.177545691906,0
-0.2552076665117887,-0.434605351439183,0.0357318043417943,-0.2374670839498489,-0.3316430620976368,0.4633680740167205,-0.6540359701696634,-0.6140248496400222,0.0594884541201392,0.0735629022824144,-0.2169670566959641,-0.0896099014286204,-0.0888863834248201,-0.2038076074369867,-0.9913959928821482,-0.4556490456326174,-0.4771697397991634,-0.7234248098990366,-0.7296608582410495,-0.1469378008494313,-1.0394860140347044,-0.8998686791213291,-0.2144525813439035,-0.2665136319013546,-1.0115343467380704,1.0,0.0712470499879101,0.0876396953110891,-1.005760024714203,0.0866820269699227,-0.1375669363287397,80.84210526315789,2
-0.0182127832088725,-0.8922537227967168,0.2591347111425112,-0.4886766922334455,-0.85853564141144,-1.9439256746311877,-0.844481404303681,-1.1392604753092113,-1.6678993249012075,-1.7239998592194836,-0.3346587590450375,-0.1076793113991984,-0.0934503733675821,-0.2780440735849506,0.2234347853994319,-0.5264740801839461,-0.5067701992414699,-0.7308134145909205,-0.7282816214045296,1.82438305303241,-0.36786875279114,-1.9006800890270945,-0.2689391531757962,-0.278504882919812,0.3478579653940876,-1.0,0.0712470499879101,-1.7793880204750632,0.3335354701654303,-1.9292433908946889,-0.1151131326659514,66.99444885011896,0
-0.3517527440319071,-0.889985204569572,-0.0238850402276939,-0.7382967073286326,-0.9030598716823636,0.1262481043252748,-1.0037614751745272,-0.844822869437088,-0.2119756329921921,-0.2033081733126706,-0.3341999336623261,-0.1013932854384555,-0.0911539435320982,2.6439470243465713,0.6283783781599586,-0.5260504251805435,-0.5242958494072059,-0.8327033024104962,-0.8376089038875387,-0.8029630586133121,0.8221771520268223,0.5348535819401868,2.7609504203648827,-0.2807153825528913,0.8009887361048069,1.0,0.0712470499879101,-0.1941674096184939,0.7799673017919746,-0.5757614324499305,-0.140408327687679,78.63481228668942,2
-0.3156038804499532,-0.7361577641073896,-0.0421547184022145,-0.5889827166478419,-0.6985119093982654,0.0297985174390994,-0.9759885127637324,-0.8357087628683965,-0.2805406106312431,-0.2735579059059505,-0.3114039021405241,-0.0994423526768318,-0.0905704621910628,0.5438082583053779,1.0333219709204853,-0.5259378426262321,-0.5236339889797753,-0.7975246765638254,-0.8169189866885821,0.1055676001758846,0.3183929342114066,0.4361199792665134,0.5498066621919212,-0.2831131165385755,1.2541195068155262,1.0,0.0712470499879101,-0.2659948486577667,1.2263991334185185,-0.4125725847108929,-0.1404320590267526,81.53288451579492,2
-0.3854192857727858,0.8054934779603061,-0.4730769521482171,-0.1007081852317518,0.3224712556078944,-1.314006761931756,-0.2710791625511113,-0.1405229117351269,-1.1430484690664673,-1.168616362148325,-0.227046122982769,-0.0971954866741158,-0.0902476248728733,-0.5028386477684896,0.6283783781599586,-0.1774125349034193,-0.4021542666680658,-0.0726148220995461,-0.135817394713992,0.8969469793704113,0.1135168303460138,-0.1409086234366046,-0.4973751570655593,-0.2532390723662032,0.8009887361048069,-1.0,0.0712470499879101,-1.1929359186806956,0.7799673017919746,-0.2627042647615463,-0.1269336590859096,75.31354838709677,0
-1.4683978439680696,0.7880228775948288,-1.7241047395060336,-1.0404002398987708,0.330916671061408,2.124891271357618,2.180162924747475,2.7747014814020554,2.692849666810042,2.6623042612368155,-0.0028835992290464,-0.0734262678613332,-0.0859812112566595,-0.4794007410218772,-0.9913959928821482,3.6004461674793826,2.2861874837498624,2.589680400256036,2.209727501486914,-0.7708269470869363,0.8993900877203734,1.056049041591261,-0.484207567670999,0.4729511995247955,-1.0115343467380704,-1.0,0.0712470499879101,2.6283764668464857,-1.005760024714203,0.5103718589168444,-0.0381607729551687,93.07890665291389,0
0.2724907661211956,0.3118005321145832,-0.5161335621150698,0.104403220587963,0.6204930761314805,2.193353404388596,2.1664235716538163,2.74142822102233,2.7323105026122705,2.69985272746106,0.0679370827530842,-0.0585634460001828,-0.0738111352030148,-0.3751877588812897,-0.9913959928821482,3.4044037727557637,2.0114414319290423,2.967497002668547,2.3121368322000313,-0.7433217676621051,0.0121614111896803,0.9075141784559336,-0.3838824782226517,0.5081773820734256,-1.0115343467380704,-1.0,0.0712470499879101,2.6640367084670564,-1.005760024714203,0.7530473450576679,-0.0756921161301485,77.0783384443825,0
-0.1749745677736291,-0.7064426882057875,0.0034660569224655,-0.5310299209144638,-0.6691218636200382,1.3750793258807976,-0.3157376426213866,-0.0037427374498525,0.7847524733068181,0.803652721029304,-0.2986938693965951,-0.0949947707070643,-0.0908562411211568,0.6128170802890303,0.2234347853994319,-0.2123174374190002,-0.3446716590437847,-0.4463060393124144,-0.5395363917624671,-0.169642947318915,0.4770906642889594,0.8528020171177235,0.637542646049272,-0.1539832225001113,0.3478579653940876,1.0,0.0712470499879101,0.8211191358639424,0.3335354701654303,-0.1419583004949393,-0.1237810588832429,72.94986807387863,2
0.0382016316324622,0.1021357894590844,0.0301404993254205,-0.0474433422913109,-0.0880772804183061,0.7331209712812939,0.714150492390396,1.0289032320680431,0.6716101101533657,0.6906580747481932,-0.2538036852278826,-0.0899051629238099,-0.0855765891617699,0.1116338994626391,2.2481527492020654,0.2041634958105378,0.219171418999735,0.1724008078193908,0.0251219541357846,-0.6587597199173355,0.7396615314631182,1.277118463660601,0.1331902648029949,0.0978766205260247,-0.5584035760273511,1.0,0.0712470499879101,0.7084989301183229,-0.559328193087658,0.0759266289899728,-0.089776574085864,102.4,2
0.225503646000243,0.5902643779912214,0.0169279250510596,0.2349923423544359,0.278588876911438,-0.7250731818908994,0.567944585081437,-0.0596911615531324,-0.4464058261935217,-0.4440381702182084,0.0026559320656139,-0.0953487174481604,-0.0930522424375712,-0.8780247284612342,-0.9913959928821482,1.1874632248954524,-0.1349035244732587,-0.2041557928132463,0.020132799936612,3.0863505766233135,0.9931632480320286,-0.8382631271238031,-0.8841270712556494,-0.2446248135615489,-1.0115343467380704,-1.0,0.0712470499879101,-0.440856299852398,-1.005760024714203,-0.1600085911642674,-0.1030863416750794,64.38564317526854,0
0.6049199847101934,-0.5458727277277288,0.807438736824615,0.2012067515363718,-0.5136248742899467,1.0620775976649832,1.5372162819427906,1.6036480445303138,1.3995772118290832,1.4120512096783358,-0.2740176392898633,-0.0921629918852006,-0.0909859567069627,0.2690765878025631,1.438265563681012,-0.4212443135510634,1.474230403537394,1.4106904398175375,0.830765094000001,0.8710083119076613,0.2654616269144243,2.0100074041251297,0.2894788392424062,0.8730087655457561,1.7072502775262457,1.0,0.0712470499879101,1.421970322012268,1.6728309650450623,-0.0123770054701248,0.0149877270312434,92.02614379084967,2
0.1149777032947738,-0.5375284021996791,0.321671855147303,-0.204893894716165,-0.5620339956694864,0.9652697051119282,1.730926412410846,1.8347432525970029,1.468968408864111,1.4801324143035337,-0.2490238865317799,-0.0831328506449107,-0.088569063130359,0.4214239506242907,1.0333219709204853,-0.4115430966849465,1.4284399758204704,1.764591883292307,1.0621203298160746,0.4624784793361732,0.8471940990532371,2.157256036204489,0.4449824682072612,0.9696158794694514,1.2541195068155262,1.0,0.0712470499879101,1.4886342415810694,1.2263991334185185,0.2882704366698158,-0.0423795946478529,101.05263157894736,2
-1.1499854153527649,0.2318341746475897,-1.1671110423335145,-0.8969866035952976,-0.0176087338741891,-0.4673195274332885,0.9998528681948714,0.722591562123724,-0.0462063618719607,-0.0339988316313026,0.0191133919627682,-0.0790068619461516,-0.0862371002648761,-0.6088425944960391,-0.9913959928821482,2.089522939298977,0.4845602898682956,0.6498401397102339,3.0045553577764923,1.9078115935505064,0.6630906206057239,-1.05726042161999,-0.6179567608694575,-0.0670285500462717,-1.0115343467380704,-1.0,0.0712470499879101,-0.0215977112840339,-1.005760024714203,0.39151492295556,-0.0970381067862219,75.31354838709677,0
-0.3826112368470374,-0.8537084667942711,-0.0663362222628373,-0.7122704866506022,-0.8301590454876345,-0.3308220356616245,-1.0425997520575478,-0.9317518672365024,-0.541508852302328,-0.542134774671523,-0.3201035956143421,-0.0995537980027844,-0.090363336692731,1.0331332205701984,1.0333219709204853,-0.5266647183150927,-0.5264087139729186,-0.8581377039297423,-0.8529612417547663,0.14464585326438,0.4939599118249211,1.4440100718313744,1.0951934874770275,-0.2847960572875557,1.2541195068155262,1.0,0.0712470499879101,-0.5418306713534592,1.2263991334185185,-0.4209250281324625,-0.140816339377988,79.79220779220779,2
-2.0667080147321313,-0.2260763752916043,-2.0634292885252,-1.7611056261692783,-0.2508711087002332,-1.109101206089402,-0.4032647787113847,-0.4493478901038272,-1.0263736606061709,-1.0462797136753363,-0.2361587310936253,-0.1036793472652526,-0.0929393612395958,-0.8226602688751918,-0.9913959928821482,-0.3370356316184735,-0.4589502264470539,-0.1366449334811154,-0.165167853752391,0.959478647419404,-0.7498335023459328,0.0536949463535217,-0.8266171205811208,-0.2770747129183935,-1.0115343467380704,-1.0,0.0712470499879101,-1.0649332349583354,-1.005760024714203,-0.834403210810883,-0.1234108287421199,72.3580214603507,0
-0.3306324259100563,-0.7997677076193836,-0.0793351160907126,-0.6764642265252376,-0.7729329103746267,-0.0923918568413729,-0.9860731620763762,-0.8551770960385904,-0.3688611935896251,-0.3642405063520982,-0.3187306512460287,-0.1006536401801808,-0.09112509375113,0.7364925603911407,0.6283783781599586,-0.5248948327958072,-0.5227654760602036,-0.8301113060987023,-0.8344250351267276,-0.1315052906792708,0.485059181922416,0.794615304278432,0.7884958145066738,-0.2821278896839974,0.8009887361048069,1.0,0.0712470499879101,-0.3589102243439874,0.7799673017919746,-0.5092750363103152,-0.1402139327292744,77.27554179566563,2
-0.1019851668841047,-0.6184209971211746,0.1253351382347648,-0.4483980173745892,-0.6811143535640275,1.053862561104999,-0.6744418702448789,-0.5290130953364044,0.4885061690665042,0.5070956949739047,-0.2709918004891596,-0.0995184189986426,-0.0913472011336533,-0.3340612721985881,0.6283783781599586,-0.461202746057124,-0.4867558980733421,-0.7134343137192553,-0.7239092956511503,-0.2128694601920702,0.9639924066812872,-1.038888717081199,-0.3208360898765024,-0.2723875425960089,0.8009887361048069,1.0,0.0712470499879101,0.5248481757732736,0.7799673017919746,-0.418262529039909,-0.1352551788238773,72.41590214067278,2
1.397294601578775,-0.4742583863248335,1.5747652201544804,0.8358046830584478,-0.445791297367326,-1.519793415698104,0.767149109695746,-0.9389393700774462,-0.912311235903178,-0.9270695761614912,-0.2592894036310479,-0.1038957420522988,-0.0929146496676053,-0.7559048768190497,-0.9913959928821482,0.3230563398512321,0.5848400784890341,-0.3116045427225182,1.514484138673746,1.0508637727165069,0.4331784797369148,-2.5208241614301636,-0.7562271120437453,-0.1129373888444836,-1.0115343467380704,-1.0,0.0712470499879101,-0.9406050209849988,-1.005760024714203,-0.8647607001098818,0.1569187309201203,71.29973474801061,0
-0.0008692047717006,1.0891950444897345,-0.2778442508758547,0.347018248751175,0.6986638415692019,-1.222151598598057,0.6192043030476261,0.3434562489419985,-0.7744123035412471,-0.7834533019140056,0.8298183224887257,-0.0501681630818536,-0.0872855135278034,-0.8071198651082583,-0.1815088073610948,0.0106546120410266,-0.020840788316199,0.638223941169365,0.90159611135627,-0.5894437883412564,0.7501480071180716,-0.4657349842148952,-0.8107315912523152,-0.2178053699770228,-0.1052728053166317,-1.0,0.0712470499879101,-0.7913476985019461,-0.1128963614611138,0.85990666791559,-0.1298033912987821,70.7740916271722,0
-0.1492128570350595,2.408100318381076,-0.1487100343830443,2.842706496811862,3.705400651329095,0.0365302632858347,-0.8393531500396062,-0.7107027446768864,-0.2678478537025014,-0.2605434754451419,-0.0475419802742248,-0.0976991862464756,-0.0912546920723837,-0.8869687838809743,0.6283783781599586,-0.4808546694082711,-0.5100809801069439,-0.7276754963989639,-0.7541524709579986,0.6383459351078271,-4.0535340008987975,0.3950805404952688,-0.8898098076100253,-0.2840773152786189,0.8009887361048069,1.0,0.0712470499879101,-0.252678138158807,0.7799673017919746,-0.2935853478864222,-0.1389285463661786,78.94570374275172,2
0.7891467741699553,-0.3906910753175606,1.0207986626405077,0.3144989440323525,-0.5739589222898476,-1.0918797313856723,-0.6689658613087928,-0.7803144799286316,-1.0554254854924363,-1.0767037095331746,-0.2313157295161078,-0.1024194629610282,-0.0931383975379222,-0.7642245700162402,-0.9913959928821482,-0.4984715049592119,-0.4544363865364513,-0.5641698898523774,-0.6257313129423901,-1.080042195725065,0.889522797256413,-0.1455662020108059,-0.7693425420430429,-0.274731539074466,-1.0115343467380704,-1.0,0.0712470499879101,-1.096727065278248,-1.005760024714203,-0.680093604134268,-0.1260006468057465,69.3498452012384,0
0.7154825364856888,-0.3977634888851805,0.630760620988754,0.2596714501609325,-0.2727278438939263,1.4299922680496755,0.0154239298798231,0.5675695522844778,0.910290750255082,0.9286459512316066,-0.237261158720861,-0.0878361653519105,-0.0895116084238642,0.0453862604319335,1.0333219709204853,-0.3469447044518043,-0.2386350763247178,-0.2300890032192175,-0.2905158110422765,-0.8698186201797553,0.0822152198469886,1.0548889817790517,0.0398807691617511,-0.1452789638071505,1.2541195068155262,1.0,0.0712470499879101,0.9453202029155392,1.2263991334185185,0.1479880405083771,-0.1231234987681388,82.01005025125629,2
2.046153587625972,-0.4957385271843765,2.352241524692413,1.4392843072480963,-0.4266033134569432,0.2954987572805161,-1.034286507116363,-0.840963400923857,-0.0904564310803128,-0.0791204518497386,-0.2260616311806576,-0.1005643781717634,-0.0916753930165341,-0.6817477027904812,-0.9913959928821482,-0.5273448050719012,-0.5261063781320914,-0.8559849630554531,-0.8504887482122875,-0.94856577979375,-0.0267594233023786,1.4967178959516814,-0.6836418357657819,-0.2855749407708187,-1.0115343467380704,1.0,0.0712470499879101,-0.0675135912843595,-1.005760024714203,-0.5016676575769851,-0.1407508641209118,86.54088050314465,2
0.5390654718780461,0.4781922085089578,0.0561026735734235,1.2966250541526818,1.5725616510369698,-0.6238645897354562,0.5108537819597342,0.4916200409968475,-0.3994639267449687,-0.3957123111621534,0.23328221363769,0.7431586819569367,0.6216730141606477,3.564456639949054,-0.9913959928821482,0.3258252231846696,-0.1138947291704696,0.6910478205088112,0.4574675143565367,-0.926556399872089,-0.8547806341733808,0.3745614330999924,3.3348420386495796,0.5168675617398346,-1.0115343467380704,-1.0,0.0712470499879101,-0.391208776905904,-1.005760024714203,2.7084098051132144,-0.1403326138293098,89.71475142624287,0
-1.0616635218841266,0.5335277794169648,-1.0619446492548414,-0.7817545685643084,0.0271181863676186,-1.5007622998285537,-0.3416018687005352,-0.645292803037844,-1.289038449083782,-1.322261169733591,-0.2178675221302643,-0.1016613573498403,-0.0933429664108039,-0.7644351100154769,-0.9913959928821482,-0.406292546073614,-0.4654253243366125,-0.2012062959244432,-0.0580069828128622,1.3175914868892875,-0.0591735253625341,-0.9453218017079996,-0.7654134927304536,-0.2764072694497549,-1.0115343467380704,-1.0,0.0712470499879101,-1.354294701065734,-1.005760024714203,-0.601531949126775,-0.1296195548180289,83.76006232147495,0
-0.1532491825775553,-0.5096063714336462,-0.0139488994661125,-0.4250929646970569,-0.5197731367401046,1.4076607781828276,-0.1771878681731727,0.1588439812210808,0.8408707819005169,0.8595767233064299,-0.2102868736991079,-0.0923912272506351,-0.088981005909216,-0.3655551241747103,-0.5864524001216215,-0.2035645607813212,-0.3347253929224377,-0.2564279290426778,-0.3900045009551139,1.0934037629453328,0.825513538170652,0.5455885902375118,-0.3591091720590699,-0.2247694470018026,-0.5584035760273511,1.0,0.0712470499879101,0.8767376487780659,-0.559328193087658,-0.0219656127609123,-0.1257359805359222,82.30005227391531,2
0.1599339834259351,-0.4499503193623119,0.341971497563437,-0.1931470704763915,-0.5665607383525697,-0.8970169470554499,0.2669764733642064,0.2250888497726769,-0.6903271911805283,-0.6961513546791938,-0.3014145854813453,-0.1066740079232367,-0.0931814713973757,-0.8065687014735438,-0.9913959928821482,0.4861023424870347,-0.0878298288392992,0.6901525259546749,0.3417045479105042,-0.3093495838154437,0.6407725971591586,0.2268952586055151,-0.8084935019629155,-0.2267004179611562,-1.0115343467380704,-1.0,0.0712470499879101,-0.7008952322284893,-1.005760024714203,-1.459021459028845,0.1374844187376153,84.57142857142857,0
-1.8155088302670477,-0.2569889162536031,-1.7046242054680945,-1.4526706631029318,-0.2044888870295368,0.9520437282868348,3.169425133145203,3.347912409889628,2.81090179457603,2.774532973052649,-0.1960317579359518,-0.0748976576188515,-0.0884984441815417,0.2114891213118741,-0.9913959928821482,3.540705553626464,4.491162765707808,1.829597880883348,1.037852174306623,0.8873483608656048,-0.1189175409565385,1.2666006402725642,0.2058696234773828,2.500115435659428,-1.0115343467380704,-1.0,0.0712470499879101,2.734864616499285,-1.005760024714203,0.480965714850444,0.0503792848602995,119.75051975051976,0
-0.3041911244197917,-0.8541451452764864,0.0132597440530565,-0.6680851844642982,-0.8502591342669967,0.1869640986825161,-0.993167944871274,-0.8130864476238431,-0.1677652870252887,-0.1580801599406044,-0.3215727139038247,-0.0996783503938688,-0.0904360689878685,1.1276028392829682,0.6283783781599586,-0.5251812430742804,-0.523156934258156,-0.834549226015527,-0.8361916307733307,-0.5762774163410593,0.6986492571402597,0.7933691823276764,1.1933493529493595,-0.2817141921613824,0.8009887361048069,1.0,0.0712470499879101,-0.1479935960446055,0.7799673017919746,-0.4303809684852845,-0.1403502082390168,75.90117035110534,2
-2.031870685039558,0.206413284483681,-2.047795002524002,-1.6068342601212438,-0.0722674626893287,-1.3611087791431704,-0.3051817220569568,-0.3669918516444986,-1.1835923438302276,-1.211222232543708,-0.0612016158430912,-0.1025207559698834,-0.0928760952851684,-0.9860835588444554,-0.9913959928821482,-0.2909065172711714,-0.3838295179536956,0.0058514775053875,0.0108170943394392,-0.5041314330408455,0.557361452350656,0.5714073969885376,-0.9918832854899486,-0.277176103109119,-1.0115343467380704,-1.0,0.0712470499879101,-1.237613977646817,-1.005760024714203,-0.6913015865490387,-0.1110478262237673,106.9417225373904,0
-0.2852910662619541,-0.6106603179991875,-0.1252764120851212,-0.5469527950559917,-0.5669661182943383,0.9088956901110832,-0.5741363259058179,-0.3131740067774852,0.3953466586065975,0.413368667212158,-0.2920135806513212,-0.0992692171990381,-0.0913951741755641,-0.0104968964326577,1.0333219709204853,-0.4444669598347353,-0.4847984589692729,0.3047293588444666,0.5872900747739447,-0.5576644577162432,0.2289333860307009,-0.3509283529179354,-0.0155231243233125,-0.2660221455985772,1.2541195068155262,1.0,0.0712470499879101,0.4307411906580065,1.2263991334185185,-0.3997938666563529,-0.1351384330948735,82.4941053183128,2
-0.7596104765647226,1.4041735002114724,-1.0144719767272858,-0.1872736583565047,0.7274795990965901,0.3345905848833811,0.6867385466629606,0.5758682122166902,0.368490744118073,0.3863069568597801,-0.0223478984872137,-0.0816442646078103,-0.0889651637498711,-0.5940031431499806,-0.9913959928821482,0.8313155814467831,0.1949904277016736,0.6988286812820713,0.8177141881751949,1.165373168388108,-0.0127459153243151,-0.7968424405275187,-0.6081645733710039,-0.1252022954395467,-1.0115343467380704,-1.0,0.0712470499879101,0.4035274426383927,-1.005760024714203,0.327323165553436,-0.1065503124938461,76.16528925619835,0
-1.8540362929929064,0.3871928860321133,-2.102604037047564,-1.1931897817881183,0.4983723686736745,-0.3757268211451354,0.5061344226156911,0.4862031743912017,-0.2245435540285789,-0.2161752034399216,0.0714528428693764,0.0557574152488054,0.126049904112607,0.8940928170557748,1.0333219709204853,1.7142522841125891,-0.2632108876730801,0.5118962502942422,0.3712108934676804,0.8115748492198701,0.1657135948738196,-0.0978418362099699,0.938680623218866,-0.064534107915066,1.2541195068155262,-1.0,0.0712470499879101,-0.207313514969953,1.2263991334185185,1.5730051681644124,-0.1388875224121033,77.45539177657099,0
0.009179318675806,0.3552364013858104,0.06521970595681,1.4664690449956457,1.7768731416883694,1.086771781902513,-0.5297275650856298,-0.3481472258952677,0.532622332509328,0.5514016685751943,-0.1840520287710935,-0.0986515683816109,-0.0900704167325425,-0.7223327923708447,1.0333219709204853,-0.4793890625952516,-0.483933230973154,-0.44824760824583,-0.5372703051200476,-0.6730941006987448,-2.630302001654004,0.228687950624662,-0.7205273651769435,-0.2784595320723072,1.2541195068155262,1.0,0.0712470499879101,0.569254781244292,1.2263991334185185,-0.3560422165951108,-0.1353849461999498,83.65145228215768,2
-0.2875395258342574,-0.746546073991998,0.0166786311968264,-0.5121164561981313,-0.6579401335595862,0.3991904476188821,-0.8313060031152062,-0.8055708956429056,-0.0049730365944487,0.0079987608314046,-0.308383742880636,-0.1027308578209563,-0.0914160946363013,-0.0714603341895823,0.6283783781599586,-0.492415126697639,-0.5033356281577791,-0.8080689736890603,-0.7999209440874945,0.6889233025207105,-0.4190402489598024,-1.550250755069122,-0.0526850556635563,-0.275223078101653,0.8009887361048069,1.0,0.0712470499879101,0.0210905943396497,0.7799673017919746,-0.7151460164169695,-0.1357656285141404,78.22407939409767,2
2.0734940622584306,-0.6855131323056641,2.3942653458345853,1.2360049749336672,-0.721348312784566,0.0088085954531124,-1.0405565223105366,-0.8837076332637198,-0.297660406693021,-0.2911186334386965,-0.2869016875233845,-0.1055061026028124,-0.0917645024062195,-0.75732642783989,1.0333219709204853,-0.5273540017065581,-0.5262646246437707,-0.8469425504720645,-0.8469133250606409,0.1824020220534362,0.8569922364634166,1.6916445562389926,-0.7557229645064081,-0.285645692287154,1.2541195068155262,1.0,0.0712470499879101,-0.2839706664688342,1.2263991334185185,-1.1459330835588062,-0.1404943938602621,84.06567630961689,2
0.4847186771669472,-0.5251856679680045,0.5717135909432274,0.0299348210495824,-0.5047740788946646,1.2955096762589453,-0.1853479385536685,0.1232801202877809,0.7559607115169114,0.7749295636679053,-0.263521094817771,-0.1013905352432987,-0.0912286462415321,-0.5438534061413123,-0.1815088073610948,0.2442711294647201,-0.3337877830870645,-0.4512018548344268,-0.5010056241089696,0.901625739120664,0.4523259655937877,-0.0714384446683816,-0.5385744198078167,-0.2387483667042236,-0.1052728053166317,1.0,0.0712470499879101,0.7925219968119106,-0.1128963614611138,-0.5755019710952476,-0.1068526482606868,73.24544179523141,2
-0.4917223101253342,0.4794820529357344,-0.4113233031138726,0.142742052911811,0.5691449501741181,-1.6831338546687156,-0.2462410965078236,-0.8207848553345231,-1.3954465014821944,-1.4346523380941545,0.3587827040001672,-0.0657182404389235,-0.0903156611927712,-0.7359482705050772,-0.9913959928821482,-0.4881722268481177,-0.2747438917985712,-0.2969622511461758,-0.0642701929871734,0.6096972011342839,-1.468618626743267,-1.6548219487165052,-0.738925768480696,-0.2444644312378713,-1.0115343467380704,-1.0,0.0712470499879101,-1.4727531949740431,-1.005760024714203,0.6467749016241242,-0.1333819040933998,69.85446985446985,0
-1.4647175069672935,1.5712938194469628,-1.916381527935345,-0.6824184654174164,0.9621608037188244,-0.704040019016592,0.3231878862678901,0.151458963010826,-0.5325391481696395,-0.5328718398566941,0.1261817860736493,-0.0935318299541424,-0.0916896738432316,-0.9187829014382624,0.6283783781599586,-0.2567227484216323,-0.1287669375270117,1.0166580853777964,0.5892906714793393,-1.1889530908425148,0.0338960936852982,0.4146690272080683,-0.9224828974074656,-0.2506963174215165,0.8009887361048069,-1.0,0.0712470499879101,-0.5322848048445215,0.7799673017919746,-0.0719882385019224,-0.107098817640285,79.25906324424452,0
1.8829390628081373,0.6882837685540045,1.4320622953098332,1.5018981135169809,0.5247558465504509,0.6463494971246667,-0.8369908047002786,-0.5923302195552477,0.1743814629704375,0.1901441259544721,0.2890065910212382,-0.0553150991821904,-0.0814837888669192,-0.5945067097031069,-0.5864524001216215,-0.5067851348656605,-0.5101375912497683,-0.75300473732724,-0.7748669940887921,0.5171810949515282,-0.0728555831119815,0.451189400003167,-0.5975771464790257,-0.2819745947766239,-0.5584035760273511,1.0,0.0712470499879101,0.205692334118571,-0.559328193087658,0.7963770039160407,-0.1405411898958017,85.37745604963806,2
-0.3597302619555902,-0.7830117421411824,-0.0896630043375176,-0.7003620088662448,-0.7931005624776171,-0.0828590040930687,-1.0126442832130118,-0.8718366604905263,-0.3628931970196679,-0.3581060714239903,-0.3072995164361464,-0.1013798158261574,-0.0912579565950118,0.102780012087482,1.0333219709204853,-0.5254122208995027,-0.5249668482998532,-0.8332366135101922,-0.8369052284998627,-0.6833016317402251,0.7608488119608394,0.925566929496762,0.1337073145938771,-0.2845134976182918,1.2541195068155262,1.0,0.0712470499879101,-0.3526177572126017,1.2263991334185185,-0.5744916000973354,-0.1405273547223054,80.56648308418568,2
0.4251508582353464,-0.852164079177753,0.7925167189783692,-0.1056655605989956,-0.8842434860519353,-1.938617430927282,-1.0515495776884567,-1.1557725002701156,-1.6739108288318845,-1.730409965606385,-0.3369754760751104,-0.1079247566769423,-0.0932819205175636,-0.1976336717455524,-0.9913959928821482,-0.5274709534026379,-0.5269641741770549,-0.8329468283775051,-0.8380042576480353,-0.0210175160316136,0.6501158710155844,1.361253291231335,-0.2028576958542451,-0.2856098908453701,-1.0115343467380704,-1.0,0.0712470499879101,-1.7862084960692584,-1.005760024714203,-2.1171796834768224,-0.1402133656569369,67.28162844627673,0
0.6338127433361598,0.1571303536881218,0.7287331057024112,0.9287015866794088,0.4732050306222042,-0.1190262658246073,-0.7220450771799399,-0.7217649086488525,-0.3691286046847802,-0.364515398371206,0.2300234120823397,-0.0695042562140437,-0.0815432603350668,-0.6922542559460511,-0.5864524001216215,-0.4534207169232528,-0.4770981880883667,-0.766799460712598,-0.7775417264175771,0.060556886275056,-1.128416603504932,-0.7017097584576667,-0.692522747182928,-0.2766748861970889,-0.5584035760273511,1.0,0.0712470499879101,-0.3591922217781026,-0.559328193087658,0.5831352767284251,-0.1393038344952,91.2396694214876,2
-0.0489377420551065,-0.5392137803762997,0.111837656698423,-0.2984912970303236,-0.4803499374031034,0.9840514600337892,-0.2227285583073027,-0.0772798449002626,0.5176484324011686,0.5363690132230117,-0.2542124688560914,-0.0944097793381335,-0.0842939157660129,-0.1544382879839217,1.0333219709204853,-0.4829739163370516,-0.2619856409593502,0.3187887417193283,0.1596766217621151,1.4930045758666053,0.4124207248448709,0.2415683672553367,-0.1528642067676981,-0.1785658608137381,1.2541195068155262,1.0,0.0712470499879101,0.554193653276978,1.2263991334185185,-0.1131227425940661,-0.1170296199136067,85.22322580645161,2
0.6654603749981642,6.359197856771039,0.0096271764628009,2.722463201898768,3.4044398262276863,0.2327171040661135,-0.6546139508597217,-0.6187886535389012,-0.1078006314214033,-0.0968208114870586,4.10329845218036,-0.0240654034830716,-0.0827939903218012,-1.0056677367508784,-0.9913959928821482,-0.4820456138073311,-0.5081629249234279,-0.6229352019245052,-0.6215263024270773,-0.8661968348365338,-3.927528180157041,-0.6489223699201209,-1.0123166980979654,-0.284835613695734,-1.0115343467380704,1.0,0.0712470499879101,-0.0855403078285102,-1.005760024714203,1.1144484178573886,-0.1406651387164249,84.76386036960986,2
-0.5541683438662783,0.1852627907114979,-0.9231591992624304,-0.7091721270460749,-0.0135211527946885,0.6797654978708088,0.1210345914798402,0.5142140206351419,0.3921009254053705,0.4100990677602406,-0.0805144433298918,-0.1002039225003179,-0.0905790292842021,-0.9182585566355602,-0.9913959928821482,0.4420270675192098,-0.2930796663869197,-0.310301436480994,-0.4269291924981962,-1.091324324115145,0.0919951462160056,0.9224640882735904,-0.922128556955189,-0.2651289363902242,-1.0115343467380704,1.0,0.0712470499879101,0.4274542311275643,-1.005760024714203,-0.4717731029635547,-0.1054410205569156,89.7094017094017,2
1.00835207143788,0.3666428474147845,1.0050219230083193,0.8547989745470724,0.1184637999128211,-1.1030573239864363,-0.6262182412012011,-0.7123256161337982,-1.0579281498126742,-1.079325743453006,-0.0793657021724418,-0.0985507739598109,-0.0924319462607252,-0.8786569028990722,-0.9913959928821482,-0.4941738044400235,-0.4653199894624164,-0.3012297342450861,-0.3113238183049782,0.753343874466065,0.7373122223533218,0.0163628564049208,-0.8880706485422548,-0.2793296789238083,-1.0115343467380704,-1.0,0.0712470499879101,-1.0994683702146788,-1.005760024714203,-0.3491583484161596,-0.1330782368388371,70.42179722294996,0
-0.2951635942614125,-0.2293927880834382,-0.0296900256905533,1.701782721395145,2.161950304706773,0.2670861963398907,-0.9378042647404572,-0.7810118067077838,-0.1074776198012972,-0.0964910919047678,-0.0953834385963278,0.3443354861084696,1.2731791444368543,3.300604966456733,-0.9913959928821482,-0.5156125626691178,-0.5179333452775498,-0.7953010418740596,-0.8078996537044421,2.117284950808441,-5.26667826463939,0.0728735738619738,3.219834378736935,-0.2681703239200585,-1.0115343467380704,1.0,0.0712470499879101,-0.0852044326899532,-1.005760024714203,2.2725064458742175,-0.1409313923481758,78.99202879917716,2
2.5162557339034093,-0.522936941475962,2.884733197334581,1.7785950973299942,-0.506260472014483,0.0610730875254594,-0.9750702202348768,-0.8535112745845791,-0.2579634338395604,-0.25041163896002,-0.2747813938641251,-0.097501151877923,-0.0920120986209705,-0.1264979691556076,-0.9913959928821482,-0.5211010718829421,-0.5212676242734076,-0.8201685029063022,-0.8287289527002629,1.4176044797523877,-0.2381120535567029,-0.1646441568754132,-0.1231482984356726,-0.2832248049369941,-1.0115343467380704,1.0,0.0712470499879101,-0.2423141236108318,-1.005760024714203,-0.2812788438664745,-0.1402510480507095,79.15433403805497,2
-0.3102291989768576,1.35892581550738,-0.4524211756546071,0.2419434447715496,0.7325130667068842,-1.1095914338204187,-0.3434988033401217,-0.5484183593820829,-1.014899129799375,-1.0342700667407927,0.210574872332716,-0.0407716643117565,-0.0888288579174893,-0.3688438999111921,0.2234347853994319,-0.2935139366003935,-0.37419312119119,-0.3626832511176189,-0.3883023076678716,-0.4677205233013227,-0.003898274837116,-0.6982879450560209,-0.3617703449251314,-0.2374776411945633,0.3478579653940876,-1.0,0.0712470499879101,-1.0523899929859262,0.3335354701654303,0.962669931397628,-0.1380509952480337,70.58823529411765,0
-4.115033139231294,-1.0787818086692382,-3.792745141933332,-3.740256914769099,-1.0920682695319968,0.2099627034095222,-1.062383354384978,-0.880296285476169,-0.1529283760391008,-0.142913743754238,-0.3420453935702032,-0.1087048845925381,-0.0937081946219965,1.774760372539571,0.6283783781599586,-0.5274542134461723,-0.5272400130127377,-0.8420972322714827,-0.8451589451850647,-0.806957865539462,-0.2727223368334938,1.4130387728185256,1.7994312221848745,-0.285433251907403,0.8009887361048069,-1.0,0.0712470499879101,-0.1325222630029607,0.7799673017919746,-5.713595962703782,-0.0872375197705762,73.16168898043254,0
0.1641582523348097,-0.1007315959607979,0.0795719092790942,0.0254354640586599,-0.0435868318091967,-0.1362123265492154,1.7469974527433132,1.4053051859035188,0.6814869017123795,0.7005350211869552,-0.1303563332286909,-0.0860764884616931,-0.0868763407260874,-0.4631074266590981,0.2234347853994319,1.5171338859966352,1.5957966234724483,0.7259601474596026,2.267034752939161,0.3329150144726028,-0.3058169729111951,-1.1871284929942003,-0.4573404763626814,0.3010643436953303,0.3478579653940876,-1.0,0.0712470499879101,0.7183561376287517,0.3335354701654303,0.2038622684950659,-0.0200261271765677,68.7995904786281,0
0.0369105811750324,-0.1983381161466291,0.1226285192459469,-0.078184458019709,-0.2143531322792407,0.8146013151929792,-0.9271892504923244,-0.7165737581670912,0.2914792518736993,0.3086000781692414,-0.1800437418333908,-0.0858751256875042,-0.0877146905822091,-0.2689297396488448,0.6283783781599586,-0.516307143642705,-0.5161415584475316,-0.8103357277206604,-0.8179113750521173,-1.2335395927346915,0.6926841275933129,-0.1826918514853713,-0.2528824918959412,-0.2817685924763147,0.8009887361048069,1.0,0.0712470499879101,0.3252781961564014,0.7799673017919746,0.209976980037798,-0.1403217965820656,74.0,2
0.0478091445391724,0.588331646463873,-0.4317653991609971,-0.0069760716304398,0.4008109293546861,-0.2177506763072432,0.9582474045698404,0.7800651971921497,0.1092992765864198,0.1241490955708479,0.1594101733812334,-0.0751247119847425,-0.0893459936507239,-0.7013101912260509,-0.9913959928821482,0.5053279172419997,0.569834866859091,0.7802316965037326,1.3608846217697028,-0.8248942469507445,-0.1623900518814809,-1.0693264335720465,-0.7057319695127295,-0.0905168411702392,-1.0115343467380704,-1.0,0.0712470499879101,0.1389082823034337,-1.005760024714203,0.4763142986636157,-0.0988418688132446,69.63730569948187,0
-0.1844272349385096,-0.7872350066383162,0.0363372322735035,-0.5266652752106947,-0.6948297082605335,0.7472082051530922,-0.8649641898446303,-0.7516947066254974,0.2459727149147889,0.2626089858987528,-0.3213551861141502,-0.0996184093945912,-0.0892588737560435,1.1113316359257246,0.6283783781599586,-0.4654802982040241,-0.5132468061827207,-0.8305713132079454,-0.8320855842779667,0.3831384013002825,-0.0041818934216265,-1.1561117636309008,1.169159936907432,-0.2725585081883532,0.8009887361048069,1.0,0.0712470499879101,0.2788919800943114,0.7799673017919746,-0.4258141145266605,-0.1389489341130171,75.78291352895351,2
-0.0780808127213473,0.1955060576065115,-0.1746722086310472,0.1514174598044877,0.3555435025238534,-1.6636296928764058,-0.3884781938621582,-0.6464918454338738,-1.4120826310401042,-1.4522548925256344,0.5613747308411414,0.023591972616746,-0.0850800196674664,-0.2360434771549015,-0.9913959928821482,-0.4921360530269004,-0.3829495111794206,-0.2939699116141775,-0.2837791595371167,-0.0978536742684956,0.289871785450771,-0.6255963229553471,-0.2587741517125356,-0.232303289584595,-1.0115343467380704,-1.0,0.0712470499879101,-1.49133866275533,-1.005760024714203,1.4227706120867103,-0.139550737339847,69.58322547243075,0
0.4425758751964635,-0.3452082853361455,0.4754861632092026,0.0349730231891182,-0.407178857913862,1.2874693542403164,0.0031677027623148,0.3318958095834505,0.8012898753931639,0.8201411767455649,-0.2165479547478339,-0.0994828044303722,-0.0894814041957252,-0.6623264132336119,0.6283783781599586,-0.3392184672397896,-0.1767882023754615,-0.1842699767399981,-0.3067236704807228,0.3844723250434582,0.799179915478674,0.9481502359042768,-0.6597943220428536,-0.2177607031942577,0.8009887361048069,1.0,0.0712470499879101,0.8375257753333936,0.7799673017919746,-0.4155926338354945,-0.0919689203916032,76.8,2
0.085952347085369,-0.1614576096701639,-0.1417654198722616,-0.0418932372605922,0.0819458234918285,0.9970067627078556,-0.2593665362237576,-0.04523691075495,0.5186376492309326,0.5373622911976329,-0.1773631313583198,-0.0863558758138119,-0.0871033125649529,-0.2984264587804425,1.438265563681012,-0.3791517284223536,-0.4287669177710018,-0.5682117752327501,-0.6421648929400566,0.0268862144524615,0.0314071625797152,0.4462511351414774,-0.2835684369007145,-0.2518125362193441,1.7072502775262457,1.0,0.0712470499879101,0.5551889921854294,1.6728309650450623,0.1952874919610005,-0.135269292771447,88.07900605288309,2
-0.5837673622221548,-0.0846800878359966,-0.4728632717017315,-0.6593558930567601,-0.3781941920774035,-0.6267235016439059,-0.7039859418622753,-0.6764136956986726,-0.7301106181451659,-0.7374314656197551,-0.2982006202642873,-0.1041931647030073,-0.0930360952313858,-0.485084072008919,0.2234347853994319,-0.4931863825781925,-0.4904739228553956,-0.4975850982844974,-0.5716604762174389,-1.2146118199488374,0.1929198153190435,0.3181349429985093,-0.4856717545136552,-0.2759291236726703,0.3478579653940876,-1.0,0.0712470499879101,-0.7436388795209291,0.3335354701654303,-0.9087911978351564,-0.1304127883676086,68.64353312302839,0
0.0128027342450264,-0.3867384156720886,0.0673921238294138,-0.2482439869221181,-0.3751876241759527,1.5094338243764698,-0.1541697959855363,0.2386740230878242,0.9220462669341004,0.9403300297887952,-0.2054219058580068,-0.0922461514944465,-0.0902667978878896,-0.3839947285402657,1.0333219709204853,-0.0973682666293077,-0.3817800234135508,-0.0241045031029417,-0.1962890187447896,-0.4597201225815305,0.6144573221449398,0.9027139783338736,-0.3746197623100572,-0.2407828498824092,1.2541195068155262,1.0,0.0712470499879101,0.956910027192974,1.2263991334185185,-0.0158552974333238,-0.1295546144370794,86.05042016806723,2
0.8811731705872159,-0.6838467644585835,1.1765004813130304,0.3008661617724318,-0.7387458686188039,0.2630164175262746,-1.0371546120787858,-0.8465253399329719,-0.1140423059083771,-0.1031926656642023,-0.2723628276845266,-0.1040430976326446,-0.0917276802974006,-0.7022271057058057,1.0333219709204853,-0.5271671394863422,-0.5259881187837092,-0.850645784506644,-0.8500277710431109,0.1351508909924222,0.9154742295273568,1.14132302681748,-0.6980276077385721,-0.2855664676573005,1.2541195068155262,1.0,0.0712470499879101,-0.0920316871415657,1.2263991334185185,-0.8862243585181286,-0.1405634824301516,83.11259984540067,2
0.3228732469331954,-0.3638163867281634,0.3035446306037728,0.0533476427568373,-0.2210419013184234,0.9677036427769784,-0.5045651479100604,-0.334321706251838,0.4491930540684129,0.4675707418861477,-0.2135873126027202,-0.0828853616820084,-0.0867419255742868,0.0534618090894789,0.6283783781599586,-0.490159870005451,-0.453953033081289,-0.0547774102907962,-0.2090026408523624,-0.8129364903082565,0.0976619800215162,0.1378829113723977,0.0572760944658297,-0.2497826705746133,0.8009887361048069,1.0,0.0712470499879101,0.4851906998359583,0.7799673017919746,0.294918308295293,-0.1372911216310398,78.22407939409767,2
-0.5232958412840661,0.4435997324111134,-0.7843737492700196,-0.2189308108375457,0.4695228294844723,-1.712246447756584,-0.2227658978947214,-0.5607115757468488,-1.410218802135643,-1.450282371677089,-0.1355144108608577,-0.0946674245885324,-0.0908519202926423,-0.6952904978932578,-0.9913959928821482,-0.4859699129750049,-0.3383435200302321,0.1137486183095529,0.4326066219101294,0.3002011858312046,-0.0809467352950486,-0.9670575295373324,-0.6961615665995461,-0.2516957518103267,-1.0115343467380704,-1.0,0.0712470499879101,-1.4892555568081869,-1.005760024714203,-0.1256744983144284,-0.1236005522611721,66.06882168925965,0
-0.1552531555075945,-0.4265170152905528,-0.0520908591637959,-0.0034196936495909,0.0451238121145095,0.9741578054832843,-0.3130814294569293,-0.1108124251021632,0.4900152518056498,0.508612106612934,-0.2249401855611054,4.8857343946119934e-05,-0.0589182121830233,2.642752909715046,-0.9913959928821482,-0.2840963670464919,-0.3430249063122575,-0.4181313353354003,-0.4932293839091915,-0.1936972044219921,-1.634162410789053,0.4421743038367227,2.442507968294223,0.0019887273449883,-1.0115343467380704,1.0,0.0712470499879101,0.5263688682137757,-1.005760024714203,1.2874965642720235,-0.1387728015621307,76.67892800840778,2
0.8724863406771713,1.214353636384077,0.5479238345678282,2.3733454301121046,2.456087234121743,1.4360009624604528,1.4242242916814012,1.5164455246064914,1.5979961042815816,1.606415318661626,2.232721621949156,1.0977056997265735,1.1427304122146926,1.1802057249542073,0.6283783781599586,-0.4702818911817483,1.4072744520812537,1.1905156270663244,0.5980385865472341,-0.9435028705407036,-1.3601459642524902,2.145417267878347,1.1705414943015622,1.562584503735419,0.8009887361048069,1.0,0.0712470499879101,1.6119871126706051,0.7799673017919746,2.948629198155853,-0.1388910999634632,93.21645313553609,2
-0.4568370356964391,-0.895418802862833,-0.1279474176661914,-0.8003986107063342,-0.8822165863430921,0.0103157787613047,-0.9065663186774912,-0.8269693486400207,-0.2912042186935066,-0.2844952087685378,-0.3286707769905607,-0.0997035619140153,-0.0907402914510888,1.9367451330998449,1.0333219709204853,-0.4798687782129021,-0.5208224412103032,-0.8241952520910184,-0.8305108129074505,-0.756633700813913,0.4909001888590186,-0.393835573872997,2.0243227618840653,-0.2772732104769452,1.2541195068155262,1.0,0.0712470499879101,-0.2771897071919697,1.2263991334185185,-0.4323108756440753,-0.1400143377891518,80.56648308418568,2
0.3352976053867592,-0.2253158362794613,0.481825349788276,0.0878067900106683,-0.3469461548994034,0.6506746996691144,-0.4891216557982069,-0.4537591317167211,0.2198580873674909,0.2361914861084553,-0.1991216831795802,-0.0785366396551304,-0.085733000220965,0.105380176599167,0.6283783781599586,-0.405900189919895,-0.4281758794786214,-0.6030002598261383,-0.6335899545835122,-0.3618896430803802,0.6092805193569415,-0.3386503832128543,0.1113159233947112,-0.2350240600702947,0.8009887361048069,1.0,0.0712470499879101,0.2522225323533105,0.7799673017919746,0.4023580717657195,-0.1367183737814867,79.58549222797927,2
0.2622153582773381,0.0512281612512949,0.2828532407024152,0.1431461867732711,-0.0888204769782153,-0.7916960942558415,1.1673062367606817,0.6226302117380422,-0.1797125924794261,-0.1702971842872969,-0.0105478093034957,-0.0897753633128397,-0.088644272328996,-0.7626103432185537,-0.9913959928821482,2.4432689099479457,0.809521720266157,0.6443064296728404,2.126370194337301,-0.9104770587673688,0.9130936301628338,-1.2189440628560686,-0.7644232543207714,-0.0817176299541659,-1.0115343467380704,-1.0,0.0712470499879101,-0.1604607086042682,-1.005760024714203,0.0806754521353361,-0.0499339040257947,70.05473025801408,0
-0.1383026338711932,2.248425389734662,-0.7539955124613137,0.3803727634503484,1.1921463573489055,-0.0699910675990615,0.9011268476031346,1.1457084098967834,0.1845510732825691,0.2004461496285258,0.9072623972051402,-0.0044201646471904,-0.083603643053427,-0.6007624027380717,-0.9913959928821482,0.8877943921097076,0.3394780235291928,1.0336089376010984,1.6635308045568211,0.1380361031187458,0.0917472169086619,-0.6603076127089033,-0.6039215321975252,-0.0955001954334835,-1.0115343467380704,-1.0,0.0712470499879101,0.2161072069115754,-1.005760024714203,1.2585305763474857,-0.1302428846129417,77.43536711478801,0
-1.2407328442865193,0.4767992515980414,-1.529691146611866,-1.0121378118539948,0.181939542461429,0.8102788186266289,2.126801667621875,2.653167363142535,1.6731796667000811,1.679815467869946,-0.0270160231972536,-0.0543447500945779,-0.0492232331716334,-0.1048606114476107,-0.1815088073610948,7.983780049805568,1.5327023440265222,2.5211310475338515,1.7281483763957874,0.3859855669570015,0.2918061501548742,1.090958269308605,-0.0867736822367641,0.5885637461306126,-0.1052728053166317,-1.0,0.0712470499879101,1.6835052066947296,-0.1128963614611138,0.808810002149534,-0.0921086912862974,82.22222222222223,0
-1.920340694020314,-0.8173972483535645,-1.650776732953718,-1.92165453819866,-0.8436041468896281,-0.8973186774152999,2.1690333750649944,1.7722285743194262,0.4809014708355298,0.4994531619159852,-0.3328031017755822,-0.1070768909129279,-0.0935170681588452,-0.0728479297710011,-0.5864524001216215,-0.4150558541340501,2.5414387118673245,0.9362305646351268,0.2524595146195807,-0.383046644507489,0.3066550522517523,2.239184843804717,-0.0780180398007048,1.057275372973381,-0.5584035760273511,-1.0,0.0712470499879101,0.517183164702915,-0.559328193087658,-1.611307323452797,2.282708910528334,101.94690265486726,0
