Id,phase,window,hr_true,ppg_mean,ppg_std,ppg_min,ppg_max,ppg_range,imu_mean,imu_std,imu_p95,imu_energy,acc_rms,ppg_bp_low,ppg_bp_hr,ppg_bp_high,ppg_bp_hr_norm,ppg_f_dom,imu_bp_low,imu_bp_high,imu_jerk_mean,imu_jerk_std,coherence_ppg_imu,ppg_entropy,imu_entropy,sqi,fusion_ppg_imu,hr_candidate,phase_id,PC1,PC2,mov_bin,hr_err,low_sqi,cluster
0,0,0,73.16168898043254,78810.32421875,60.05421454224076,78579,79005,426,492.58919313162835,2.634622746179869,496.71319692554977,931780049.0,492.59623874638277,29.542581281762672,160.5769973338641,361.4224203086609,0.29114192146157125,1.25,0.12475417897298448,1.0442322587637893,2.9162520323291026,3.64127961833847,0.19263497681629324,2.920798482912583,2.80225153146885,0.28491327711117603,0.5951617077302175,150.0,0,-0.403096910574927,-3.485212828141847,medium,76.83831101956746,True,1
1,0,1,71.23478260869565,145673.59036458333,66718.8522111915,75929,376198,300269,509.59213486696365,124.95252468629981,699.767095490734,1057141545.0,524.6877903513193,734318871.8570852,856036269.0686706,136342487.32709035,0.4957650112341026,0.75,1338.104148531039,6847.490663903405,46.82981418780555,105.4929253650006,0.13500965135424445,2.3729872680604074,1.5944755616052686,0.45269357342729294,3395.2420509267185,90.0,0,21.50163530744271,26.678724032195777,high,18.765217391304347,True,2
2,0,2,80.02526049889485,242593.53515625,13830.388277788481,213558,275854,62296,496.86675370539183,107.25275904461434,687.9207779599543,992178145.0,508.310658220361,60293734.73397425,16195595.73415575,1497756.6735387384,0.20767022243997102,1.125,3676.5595281245805,8362.625097778426,20.532284737862227,49.4213457964778,0.16385254705820126,3.215173184062837,1.9055195999451153,0.20313411286775807,1736.87588446017,135.0,0,5.283605023369749,1.0236264251823186,high,54.97473950110515,True,2
3,0,3,85.54720133667502,233831.18776041668,8087.142454480998,221095,266312,45217,480.1652957192601,63.49027349525432,578.692140938696,900824548.0,484.34463560740164,14766915.908916673,3557591.6982784425,334183.7527991232,0.19066673163940157,0.75,485.79858549729033,2289.9487854053214,13.893279209551086,23.1379436114477,0.3102686362321533,2.688574677558268,1.9749624905133412,0.17677470809657977,436.80771726648936,90.0,0,0.13027686321437873,1.4845562133709158,low,4.452798663324984,True,0
4,0,4,84.42001735608909,215936.01692708334,12703.394205531045,190699,264698,73999,496.08553066332087,108.06197906097522,667.0678554823406,989868461.0,507.7186672283021,68082687.501798,21519392.930292282,2112105.907572874,0.23463537964121806,0.75,2197.447327258914,9757.217305441138,27.738442277741836,41.55528963616136,0.20309086303719787,3.0298701177679943,2.500981223468878,0.220526651455406,2289.623022083685,90.0,0,5.5665914993476,0.9806102953938531,high,5.57998264391091,True,2
5,0,5,79.55207166853303,214786.98359375,25536.897864495168,100029,324789,224760,503.9480144043166,116.89223280631903,706.4600088983073,1027689198.0,517.3271646767643,172878826.58234483,180515573.59500805,19570797.30858208,0.4840011207796822,0.875,1845.8630223966481,9866.3516060285,35.025353000276574,65.6867929982871,0.23118262760955471,2.4213646976312715,2.3769047918654307,0.44314164745561896,4775.809236444991,105.0,0,11.087568266242032,6.99309277315429,high,25.44792833146697,True,2
6,0,6,79.11408704609838,219419.803125,14354.34079362663,190826,266829,76003,502.3758161715736,113.38709395669869,694.3765547403233,1018514280.0,515.012712221747,76918838.83699074,22274762.280695543,3739094.572692219,0.21640123316791407,1.125,2127.6641394460285,8552.742625842551,30.672848873029825,69.84666463265846,0.20058502773114387,3.0654708157917363,1.964247759233876,0.21147752368317188,1851.0404524332794,135.0,0,6.789889273566704,1.2347507123218966,high,55.885912953901624,True,2
7,0,7,80.17582417582418,205851.39270833333,14747.080197606383,179054,232580,53526,490.3883454103064,70.98794357958722,620.2237096193915,942796867.0,495.49976533588455,12797459.533486407,4466896.480666004,381009.4523122606,0.25314842524261794,1.0,849.6719502572273,3526.7293703627947,12.78853607928317,20.856009612260767,0.1822520634661696,3.255819224078193,2.2940761423917664,0.24487955535301226,893.0391347894736,120.0,0,1.7885871924852668,0.3196000159597093,medium,39.824175824175825,True,0
8,0,8,81.29373713613643,200613.57942708334,4181.807602698025,189852,217189,27337,489.3999911238459,84.91232144873281,632.3650330308029,947414222.0,496.7116403365572,4010207.9288425427,1129167.4830229403,152836.26652339406,0.21336400575849526,0.75,882.2854993303247,6769.277707942698,11.350280725205552,21.44033939921293,0.421680074481759,2.8223626098367722,1.9102625759316725,0.1954526414014284,1444.533571864098,90.0,0,1.6956477692768608,-0.5395250309541197,medium,8.706262863863572,True,0
9,0,9,78.8418004738089,196832.33098958334,9977.754517345807,182155,252529,70374,488.8117397254736,61.77097975497201,555.6772784029384,932169872.0,492.6992701773906,2870513.0740444963,1461621.972127283,222423.54674225088,0.3209140781285085,0.75,198.42333016378245,600.0467255983497,7.274912655673411,17.12588638788923,0.6683832212778686,2.2330052236120697,1.4381925228695578,0.29997347740391533,192.88435585755298,90.0,0,0.44769966894290564,1.76564706878248,medium,11.158199526191098,True,0
10,0,10,82.79260780287474,203094.48723958334,7006.043557309681,190108,227350,37242,485.4451735675342,44.494798637817354,561.0215640337069,912525326.0,487.4800546133486,20142611.155053668,6324449.771982218,320424.04276431643,0.23609718415567213,1.0,219.97341186328512,1418.2015887906484,7.392335151255269,13.599202099372887,0.45486934550431185,2.955441264702121,1.9827952550513115,0.2252014305207417,335.0694988627282,120.0,0,-0.34015293962503257,0.46580394667214214,low,37.20739219712526,True,1
11,0,11,82.47928812519177,199427.56901041666,3690.1773717995898,191135,222023,30888,511.10374354982633,123.529204526784,710.1656806081209,1061708164.0,525.8198370560649,3646161.271269015,3675445.9188085673,629994.5501609456,0.46222711333859046,0.875,4951.0431594785105,11090.461177699946,14.475405252496527,35.58717183100423,0.2639261983882983,2.6352294768400677,1.7536810539698546,0.43940723187247965,5126.774082875289,105.0,0,7.146901443130051,-1.7520765644443372,high,22.520711874808228,True,2
12,0,12,83.89513108614233,194720.09505208334,6187.282575858096,183821,245977,62156,494.2671556811392,90.39746385339866,650.3689617519134,969491415.0,502.46564325956655,14321541.805150859,10108492.25102697,1348873.2970841858,0.3921226028902214,0.75,1549.178792329746,5864.776710138232,18.27231992114528,31.340436492395217,0.20257916557508632,2.22918730794808,2.4687128186337515,0.36691759716108696,2300.1036315522433,90.0,0,3.9256069835538954,0.40566878388591743,high,6.104868913857672,True,2
13,0,13,86.29213483146067,197757.28046875,4947.083042080811,183925,226889,42964,487.4530532074258,60.31646862597715,554.8526580687063,926394453.0,491.1705971134164,10996729.071648024,4666822.434323732,559605.0132166448,0.2876642673578298,1.0,527.0007715165003,1894.2815821007339,10.43133437399181,34.91343761127941,0.528930927922322,2.4448399111842267,1.042213411020434,0.2695993424133755,545.2047877517962,120.0,0,0.7691747709661498,0.8378892176831552,medium,33.70786516853933,True,1
14,0,14,84.95067264573991,204489.08828125,11533.577939012652,180943,236550,55607,500.69650775627014,100.4344810573474,672.7099647788477,1001410859.0,510.67022418052073,56006075.749896735,8327865.221925815,1028044.0261129925,0.12741144905848328,0.75,2278.2362595909135,7912.205163545529,13.428264925753288,23.271091666188767,0.14766621239781808,3.04764505283123,2.3706723174928426,0.12418247892251434,1008.2329365844081,90.0,0,3.9179027872644894,0.15037262776980756,high,5.049327354260086,True,2
15,0,15,79.10112359550561,213151.41484375,11264.536293743338,180694,269949,89255,519.4818976701486,157.97148237267774,798.8931001511878,1132095096.0,542.9700095309132,27696750.521535326,21015736.96489872,3643279.729853032,0.4014025212939874,1.5,5104.092782369823,11943.950233399015,32.37503773399081,79.35849748163739,0.1012826711229716,2.3857034018027905,2.3639577970815773,0.38026343584568645,4794.7331404175675,180.0,0,11.544506120760806,-0.32740397357509116,high,100.89887640449439,True,2
16,0,16,91.72981878088962,223108.08515625,15797.098073492158,193786,273121,79335,505.03467435493417,100.88848056991245,680.0909123373398,1018515870.0,515.0131142140946,64522417.03655411,16546374.136440484,2867029.3645449644,0.19713126089045932,0.75,2531.0700648156867,7556.0879390556875,13.673352943539744,21.60061677193779,0.24758329944725185,2.973952570414012,2.533788709386388,0.19029499090978913,1489.7382740861303,90.0,0,4.674795377422191,1.3168213811476768,high,1.729818780889616,True,2
17,0,17,77.44889615699101,189441.165625,15692.511415104766,168679,246115,77436,491.81974418637276,61.981887133400335,589.2268211983318,943597114.0,495.71001109939937,40454567.83032847,8199521.17924901,824991.7318290189,0.16571692635322652,1.125,1038.1229111356647,2850.775537789821,9.752992398741053,15.181908179560432,0.31986977489176743,2.79245080675189,2.017549262721595,0.16339777586565232,472.58747677184874,135.0,0,1.5108039076870807,1.3752717185059777,medium,57.55110384300899,True,0
18,0,18,81.22686409307245,182371.38958333334,4738.936660549916,170062,201105,31043,489.9316223718091,66.65573426603078,599.4635379318961,938787769.0,494.44512487273715,10043865.816212472,3770324.9326801854,496118.2131170645,0.2634691495962422,1.0,657.1192515737491,3421.953435685541,12.21378458060217,19.784534648282378,0.22177089076537163,2.797551701049679,2.1231660297962973,0.25593501961605986,901.8426308076049,120.0,0,1.3166997575935124,-0.6380607801382192,medium,38.77313590692755,True,1
19,0,19,77.17156680312617,187503.25885416666,6800.655134278634,178867,222216,43349,493.9109592467772,102.66323898071657,611.8753954983492,977233061.0,504.46781493181834,16144291.066811793,5256682.768782961,997194.1626688357,0.23469253240668986,0.75,2785.823581381168,12487.40801069834,7.751856484707943,14.543479615239992,0.3010692263821015,2.575578045951673,1.4603210518026732,0.2161681171976875,2930.9361017587853,90.0,0,3.278875853872421,-0.36044929275901194,high,12.828433196873831,True,2
20,0,20,79.02113459399332,182521.93463541666,5820.368335517268,169560,211482,41922,487.6083295446137,74.69418924272529,610.2356920360384,934429843.0,493.2961635244254,17796083.30870082,2893156.8993811323,651325.2408414263,0.13557077043275303,0.75,534.6577289439731,4375.592303349758,17.25281106467055,26.742891112442592,0.22994252600187523,2.7635349707755914,2.481193396576759,0.13101676180138092,593.3379904351839,90.0,0,1.7713818117563216,-0.23355080812062287,medium,10.978865406006676,True,0
21,0,21,76.82194912832237,193831.18385416668,7641.854649897235,170177,221911,51734,496.1802420311727,72.93310627419784,619.3672561347689,965814031.0,501.51178507879223,17004582.57728085,6487716.554645331,2076793.9753591265,0.25373275960252223,0.875,834.0255887100996,3587.3826621958983,9.416189382860203,15.832696259247365,0.4067146969048171,2.8312869857160523,2.0409883200870476,0.24431071342628058,910.4902353888106,105.0,0,1.893245858593463,0.12852603862048267,high,28.178050871677627,True,1
22,0,22,81.18393234672304,207349.00989583333,24651.633884742856,167291,253603,86312,486.03259033532726,70.85259446448384,608.3329653367505,926391433.0,491.1697965168631,49068609.2319972,7123281.479280148,2008418.3414595213,0.12239250263818273,0.75,401.20867697996084,2749.279226860898,15.918892642316562,26.40380405728735,0.31904587205883034,2.837289796741502,2.332067245639106,0.11955662368229304,336.6135575293116,90.0,0,2.00406267155632,2.4552601837514567,medium,8.81606765327696,True,0
23,0,23,89.00662251655629,196835.44817708334,14810.732568532361,186210,247688,61478,482.13714556656083,56.98277746327347,575.5378326923892,905100534.0,485.4928053663617,75128720.85612139,6842627.035885884,354798.18555117754,0.08311608598123285,0.75,92.6012481904817,943.7021112082735,8.434501282544156,13.33959139201528,0.2799659101110043,2.4033136269673925,2.218304365175133,0.07970288154047077,78.51994190183906,90.0,0,0.033720920117757264,2.1542806099233625,low,0.9933774834437088,True,0
24,0,24,91.21668597914253,201429.94947916668,11482.553781854314,180539,248852,68313,495.5055924031964,91.52737853865042,639.7704056447209,974987724.0,503.8879370703371,51995394.54804742,44928405.19752133,6794696.76972339,0.43317640254163475,1.125,1129.862131253761,6234.658407179658,25.17868988160332,37.02609303145611,0.21220324764866533,3.0195531623481826,2.6641909935611143,0.405096006892658,2701.1400763005845,135.0,0,4.907197829156201,0.9284171724784439,high,43.783314020857475,True,2
25,0,25,89.71475142624287,213422.09401041668,10214.14758668938,186652,265956,79304,484.62956595530824,67.66560664623346,594.3400539875976,919466690.0,489.3306147389854,32187280.854773182,32118009.55651235,3974235.685154502,0.4703900479793594,0.75,583.0369590984207,2432.935017662387,12.343612656890697,19.81529347410227,0.1773793850364985,2.7216418026242177,2.2127953403113088,0.43362587799985186,1144.8988097368533,90.0,0,1.7176832260150194,2.0266497380597,low,0.28524857375713,True,2
26,0,26,83.60808709175738,211984.76640625,10153.387618095674,189976,247298,57322,489.5298976289552,80.62673385919418,616.1686862364768,945178333.0,496.1251766292622,28633544.239362277,10426482.34936397,614976.2279627209,0.26279726803140024,0.75,1087.5318242089343,4550.01560911908,14.928654583426045,23.624732418753588,0.15980431840837264,2.9537992584844113,2.262487527984753,0.24048523301118369,1195.994468844753,90.0,0,2.197658082062609,0.7285534556532883,medium,6.391912908242617,True,0
27,0,27,89.37160589604345,191264.7578125,49374.44551954685,79775,344041,264266,506.8216143774591,145.84904136295447,723.6797165693278,1068057952.0,527.3898858213596,424849752.2016578,97509022.19924761,22752072.291147716,0.17887925509274066,1.375,2807.8102882010835,13645.446194279228,28.910437586712796,54.24842819322698,0.43434735744011066,2.3794273958252283,1.6529391702339546,0.17152527217571856,2441.066129895834,165.0,0,12.139859825077078,9.80709069644236,high,75.62839410395655,True,2
28,0,28,79.60611557398289,220146.18489583334,51971.54629178396,79052,425393,346341,495.9077746683091,135.5799622324116,635.8666366866642,1014936757.0,514.1074276213258,954521710.2112827,581163030.6468056,64984658.542298086,0.3630749927902103,0.75,1230.5794624254895,9537.5836957578,39.69197587078619,107.71605832130896,0.21360300320018719,2.527518711184317,1.2974721441281116,0.3393442504236089,3463.2212065660806,90.0,0,17.27213294952715,23.016504811337906,high,10.39388442601711,True,2
29,0,29,74.46540880503144,220444.76744791667,4038.4340389320396,208558,227773,19215,481.9879107870741,57.5904673364279,563.5417386265013,904815391.0,485.41632448128144,3565286.7964819446,679790.299986402,96272.65397486895,0.15658501135896757,1.0,402.10775899414114,2282.8240362902825,15.687111683749636,24.933991015464287,0.20976445085815962,3.073292610517208,1.9024248183848425,0.1524988468852269,357.61261266439703,120.0,0,-0.09977714221057025,-0.02923726087975735,low,45.534591194968556,True,0
30,0,30,82.92156240076214,221992.57838541668,4059.8903357266386,213482,229283,15801,484.4927608691414,69.22302105920846,598.0921732220922,919776238.0,489.41297692150204,3561667.238480599,236248.17570474398,36491.71774546788,0.061612699845407765,0.75,480.1548822134553,3893.022835306731,15.144982893457835,26.475708274240752,0.25161192745649374,3.285225894016313,2.3225325047897285,0.06010823316581174,239.92126014291733,90.0,0,0.3678679283404898,-0.3620823453807683,low,7.0784375992378585,True,0
31,0,31,84.98198661863098,216134.67317708334,4269.5732245142335,207271,226059,18788,489.1447541493321,76.53425573355663,625.4939598007568,941261118.0,495.0960339292772,1185771.300919529,138363.79164221953,8749.211525031043,0.10380780328643664,0.75,645.4791332959985,4790.309972582325,16.06958770655975,23.860532033110694,0.2351922487108388,3.163857084711759,2.456284471075416,0.1009376166438736,497.37536311816814,90.0,0,1.1885738914336739,-0.6331647379652925,medium,5.018013381369016,True,0
32,0,32,77.60711398544866,208581.88880208333,3386.201345762132,200269,214889,14620,478.82508979782153,46.960259072874535,548.0742164571712,888878333.0,481.1223675449764,2247139.3055717805,97469.65165220381,4163.808059096364,0.04149811897212477,0.875,156.01165542326638,741.1053608988555,9.782387906588388,14.723802308037222,0.16747167667264187,3.1188939908447724,1.993332740880323,0.04116789849616659,30.795976556432294,105.0,0,-1.3769977721489197,-0.16825546901294927,low,27.392886014551337,True,0
33,0,33,76.01532567049809,202793.07864583333,8394.17442222843,183573,213964,30391,489.55061602030406,65.58194484427463,612.1184519264358,936809461.0,493.92387787534295,6355006.91866617,152066.04240601632,4989.4377308300745,0.02335144123219206,0.75,1236.2397041666454,3327.7656404954096,12.930672955619569,20.699371332289346,0.23725501885308178,3.2689026486592496,2.441528507457566,0.02294388299183525,77.73147522976872,90.0,0,1.032708911786222,-0.43225123682625277,medium,13.984674329501914,True,0
34,0,34,82.94220665499124,211796.54635416667,4923.7659292432145,203175,225358,22183,483.39685515154065,53.301077932506544,569.4044695969933,908211934.0,486.32656156040525,5112405.143895775,144604.49465913238,4293.7208552310485,0.02748453848427102,0.75,535.1254631684892,2175.4434996119253,9.451446704258405,14.08225788243106,0.10461517457731793,3.139908596231309,2.1919548285144694,0.027156969528195286,59.81854512392545,90.0,0,-0.666827554934223,-0.06459133465300236,low,7.057793345008761,True,0
35,0,35,77.19587628865979,202735.14661458333,6153.528682340692,188122,211595,23473,490.5622833199499,93.59430035486737,662.2416875597895,957739188.0,499.41089983599676,5357757.603506783,130538.91846963139,4698.8709776549285,0.023764614592081252,0.75,1591.700589533043,8039.368406886371,13.692502129602731,21.115569834238645,0.20152375682052212,3.2798521642526133,2.4353369250058283,0.02353275215814106,191.07625636800094,90.0,0,2.054481600349122,-1.0901617318317203,high,12.80412371134021,True,0
36,0,36,77.43536711478801,202369.91223958333,1676.1117816356082,197195,206375,9180,481.0002066067835,72.33144518797904,612.6649127283829,908517261.0,486.4083024771987,1664452.0798634712,78995.07016532852,3983.4876324306033,0.045206412467996934,0.75,390.8920125082626,3947.6837615492664,15.024845899981134,23.226073720656082,0.2925653000324014,3.0865692993793172,2.3094460546828772,0.0447268010821224,178.50582683027778,90.0,0,0.22235318830790596,-0.8525660386702749,low,12.564632885211992,True,0
37,0,37,81.05540897097626,205538.80494791668,3332.4002436035903,196182,211246,15064,489.29639229415693,63.61251202270801,590.2000028581768,934876843.0,493.4141376145567,1243176.860227192,89207.9607775617,3223.510632658959,0.06679200680651308,0.875,621.7739052457707,2997.4776389499657,13.520764468344927,20.28800534898435,0.18040262667223,3.0073866938365073,2.3078887866272053,0.065508637691254,200.27433886992338,105.0,0,0.4620503775365829,-0.7109961753436173,medium,23.94459102902374,True,0
38,0,38,84.57142857142857,202456.37005208334,4161.094814655277,194679,210661,15982,482.02208243387105,57.58474791077759,575.3734435565414,904939358.0,485.44957631646287,2273158.825078827,76730.80810235655,3287.319606602583,0.03260732602852253,0.75,692.5292133352926,2586.2862071295094,12.338107460489521,18.377926829529937,0.25610823637241614,3.2333593025859093,2.1289776801167095,0.03232207188384494,84.36448488497139,90.0,0,-0.3064588587998324,-0.4862903223296977,low,5.428571428571431,True,0
39,0,39,80.48205396908567,195722.20651041667,5312.579726686982,186914,204809,17895,482.4280695794099,39.79958417664716,551.471120515537,899792061.0,484.0669883587911,2691833.474353173,79868.9909969931,1856.6121144217334,0.028796571036087057,0.75,238.137488125147,825.567351829594,8.749370505238332,13.365362054285503,0.21045854735239505,3.192625451141985,2.2456463092403736,0.02848418228027267,23.802305463071267,90.0,0,-1.054786045338095,-0.3534067802266865,low,9.517946030914331,True,0
40,0,40,80.0901916572717,204731.43776041668,2644.752881942451,198492,209004,10512,483.14967309059824,61.04295496436407,592.3854271625495,910693820.0,486.99060458938357,1596038.0851476677,82796.97774847386,2756.54277131447,0.04923726870984831,0.875,244.6537502015797,2786.2742185911347,15.184349596880807,22.20184220639198,0.2606073807835628,3.318796519725669,2.5254879775675967,0.048768773823218245,137.2377696688042,105.0,0,-0.013511510676655727,-0.9198650628711226,low,24.909808342728297,True,0
41,0,41,84.63920230910522,202403.95234375,4197.521842938716,190965,208672,17707,488.58825105061675,80.09549539903105,620.4708695820268,941313667.0,495.1098539192254,3407135.163073597,228557.3094265458,6361.080585306715,0.06275506554068053,0.875,476.02759152760063,5558.979170951245,14.146844845658787,24.282629053196022,0.1695940543152568,3.114005544985962,1.8101987970574345,0.06150367843618504,348.9168572778639,105.0,0,0.9871603818959636,-0.7775857718531775,medium,20.360797690894785,True,0
42,0,42,83.4998705669169,198034.2625,6448.563461422209,188578,209273,20695,483.98363736413194,53.88913883722564,584.7622128490158,910633730.0,486.97453785678914,8820554.761883497,136623.74513248113,3591.709908948388,0.015246875193209266,0.75,796.2347126660945,1614.8551011713485,10.067576694553699,16.17249765979597,0.15966205773211484,3.2942307785106655,2.4796371199287712,0.015176394018960915,24.636741057870083,90.0,0,-0.21306413119080725,-0.47758545169109196,low,6.500129433083103,True,0
43,0,43,88.50707176532215,196701.7171875,5533.748291705595,184426,206202,21776,484.87129831758403,56.27255200794638,575.9292925313559,914944420.0,488.12577891529827,3434927.420671868,51420.604405040394,2581.0040425613906,0.01473822023201711,0.75,466.48553123689544,1220.963374376488,9.040637601615845,14.46444854144968,0.31823519255051214,3.2929123235055924,2.148745290142228,0.01459467992226662,18.009565327019455,90.0,0,-0.45968778549676986,-0.46608853359283064,low,1.4929282346778479,True,0
44,0,44,85.09147127029117,191970.98229166667,8500.484907105973,179258,206120,26862,498.34538257184465,80.11044285696113,658.2080597432324,978300685.0,504.74330444832714,4700052.765219202,75393.04989091301,3728.794009603702,0.01577532859901089,0.75,1555.5133501083947,5343.704875124786,10.746512165902612,19.569335356968303,0.13248017248397098,3.298612053743022,2.2753519978665824,0.01571395629914188,84.31447566982897,90.0,0,2.045971631783556,-1.024895879412066,high,4.908528729708834,True,0
45,0,45,83.85619174434088,191792.84791666668,4461.658524105675,182210,201586,19376,490.10530200461676,61.13858897248711,594.3122435716174,936733955.0,493.9039725640839,4388805.856951237,98768.37562516578,2799.7285256103582,0.021995579094469524,0.75,442.2658213433712,2063.307411175456,9.754206325999078,14.155210783192748,0.13073662990687068,3.169396885003903,2.598531392771374,0.021781317798018954,45.40563693780936,90.0,0,0.18490339713103143,-0.9041093407195764,medium,6.143808255659124,True,0
46,0,46,80.47022744697163,192692.2703125,4200.422992632447,184189,201009,16820,478.76840750618237,33.05900257233172,532.3927590882298,884398409.0,479.9084138427699,3624305.2330074813,114502.51885769695,4372.89045216918,0.030589632133492257,0.875,71.26372949583096,779.7987530957728,8.604655224660407,12.878922165679125,0.21627216645045286,3.3287474957424674,2.4499427782038152,0.030461618887527585,23.884346627489137,105.0,0,-1.5056365237338711,-0.5545030694661466,low,24.529772553028366,True,0
47,0,47,82.364635103322,176624.98333333334,8341.217645501049,158471,191305,32834,490.154174795177,74.06196050172463,621.4053429429993,943627350.0,495.7179531371645,10178438.534275576,564871.5315179023,22138.53539504223,0.052470784306706875,0.75,1816.0035312755065,4439.91404834157,11.092530412749017,18.860883319070233,0.23236162743459324,3.2789436337331663,2.3101464402605134,0.051573139395733235,233.01824315515498,90.0,0,1.651689099762522,-0.9658377032230034,medium,7.635364896677999,True,0
48,0,48,84.10951760104302,169229.07421875,4288.804626699844,158869,178323,19454,489.6398391810936,69.78212948202518,623.4741749690776,939328196.0,494.5874217045287,3898249.9541543974,123570.25091268009,2439.6726765825038,0.030706329776585894,0.875,1323.4694309463853,3130.604271445386,10.966762545934863,16.842753609503458,0.19005131941859,3.232707585432336,2.5862436595100986,0.030335416978868664,96.16007348876703,105.0,0,1.1172742379567842,-1.616723215016257,medium,20.890482398956976,True,0
49,0,49,82.19263899765075,172321.23697916666,7198.730842611197,158886,194859,35973,480.46113653619335,48.44729392614271,569.1849809588391,895449769.0,482.8975502220079,9241737.647452915,1356359.3365496234,795868.8067832899,0.11904190002452839,1.0,281.8047811496147,2219.3894119672423,8.616331623089458,14.482979591619271,0.1517898194858104,2.9123833426033485,2.298403709676499,0.11714622644589918,264.31937439492583,120.0,0,-0.26580932227188386,-0.3093694464921293,low,37.80736100234925,True,0
50,0,50,83.17689530685921,178427.62317708333,6600.745805631101,165307,192356,27049,487.95154333643455,68.98894424839617,590.9744486414052,932567743.0,492.8044065072031,7324889.7242742665,1087580.7229599804,500684.34544270264,0.12201972794790199,0.75,2110.644101539215,2591.3192866866384,12.298531008131057,19.18540903380715,0.22814106854063904,3.242319935465508,2.0777866109396568,0.11987698705497828,316.314094115603,90.0,0,1.3463618236582318,-0.8554688426561184,medium,6.823104693140792,True,0
51,0,51,78.9873417721519,172710.29791666666,4591.035572211149,163648,181280,17632,479.4513063042285,61.5200114617367,585.3587310161594,897247745.0,483.3821127504444,3416653.6745045204,116130.0879810158,4466.778207792468,0.03283060858851501,0.75,625.8591417971792,1787.3681807992073,13.12288716206519,19.57055138716078,0.2448942922663798,3.21806146387945,2.2701712596287784,0.032356106586821094,58.71321575597342,90.0,0,-0.011567877287941399,-1.0122408298549106,low,11.012658227848107,True,0
52,0,52,78.26495949830154,167316.60286458334,6883.206732606096,157210,178818,21608,483.40107392395316,58.64732082188806,565.6836128710396,910525849.0,486.9456915410759,5533014.958062368,257095.47746585633,11204.65302023447,0.04431675810427044,0.75,675.1124340125214,3056.340451372622,9.792682354337977,19.40163771203829,0.4059121529753704,3.1784618670455185,1.874329479591036,0.0436739078645415,135.49141722588146,90.0,0,0.09105379585342674,-0.7918667779232794,low,11.735040501698464,True,0
53,0,53,78.55232100708103,176328.97239583332,3487.1847693209265,167807,184995,17188,491.75268382756013,78.79706616297145,629.8416030994309,952433970.0,498.02578215138624,5355614.563842236,212894.67786034933,6967.298775902947,0.038184122256584484,1.125,1538.6430350113621,4773.287296925149,13.594998001127706,22.136733295190453,0.20343275615136336,3.2236623662158554,2.4650471347748937,0.03774797173867738,182.30196983384818,135.0,0,1.7035201843542818,-1.7627538968387495,medium,56.447678992918966,True,1
54,0,54,82.47507031449757,165413.28880208332,7626.0421091958815,157012,184389,27377,484.44022742474505,43.635954457434565,563.9287332033044,908491893.0,486.40151158148143,6489726.316039401,309997.02291538846,6691.518289125619,0.04554483225268961,0.75,363.93084938867,1169.9648909949547,8.899525021758985,14.209116133212916,0.21332859761691492,2.986015978352639,2.4656902937010927,0.044621188839380606,53.33139953415419,90.0,0,-0.23659415706961343,-0.6005242459785963,low,7.524929685502428,True,0
55,0,55,78.51114023591087,167515.97473958333,6640.043049060173,155919,183794,27875,481.7542581034621,58.23498918905604,581.248130034605,904237360.0,485.2612483669664,10646198.205488157,200600.40977080725,8510.065828936995,0.018479475403614536,1.0,498.2857766720722,3296.8563496731704,10.964614887549304,16.22559301658171,0.23983972546766738,3.2013509450658484,2.4347436976476793,0.018428322561204403,60.94265529843937,120.0,0,0.06918063934517499,-0.9586604430695803,low,41.48885976408913,True,0
56,0,56,79.73063973063974,166700.84739583332,4166.026602939481,157917,190788,32871,481.4092952276123,49.0511807506908,555.0506226575585,899177963.0,483.9017750169794,6726226.911917109,5982284.922464049,217294.69063403367,0.46281714884766284,0.75,252.16053321233528,1606.6221970000852,10.914935663254466,15.585949678275693,0.08148698552554504,2.5044555658672882,2.16374713906559,0.41468802955636164,744.0351216397952,90.0,0,0.37477521226305205,-0.2700530152384794,low,10.269360269360263,True,1
57,0,57,80.0625488663018,154520.33645833333,5201.440559957881,147780,168457,20677,482.1547982830968,40.320964523263655,539.3661539979142,898940274.0,483.83781341220117,2310185.191313018,221439.78446010727,7700.962422342545,0.08720415962728671,0.75,305.86044558751365,1289.0565472133076,6.85589472578868,11.597941062491786,0.20965042773929046,3.051056445093998,1.579642606717894,0.08445808638166569,112.4982970714156,90.0,0,-0.8466080931632183,-0.8020067830508674,low,9.937451133698204,True,0
58,0,58,83.4998705669169,166622.6484375,6802.028290322035,148570,185538,36968,486.0499778773157,78.48389560950851,604.4793977439206,930832523.0,492.3457147823908,8587032.31846257,273616.70805341954,5317.677143680408,0.030861463526642475,0.75,1301.4878605957474,5324.61207952612,10.310250169460797,17.3002083537839,0.26183146647102623,2.9932513296389236,1.8473882423500454,0.030509925843230964,164.35618294934196,90.0,0,1.154229991524501,-0.7496007830045494,medium,6.500129433083103,True,0
59,0,59,78.20365535248042,166160.78958333333,7025.040150426175,150056,182765,32709,486.936534959563,65.64699817578061,597.1483464745627,927040195.0,491.3417521928262,15872985.50449056,1393175.807453368,378910.16429392656,0.07895552077131116,0.75,1321.7845296270716,3084.4659798958282,10.383134229535745,16.308059642839865,0.24270041342262536,3.1504704891849307,2.2224577745004335,0.07690289722081445,243.61457326483898,90.0,0,1.0110571244725384,-0.8506932058433812,medium,11.796344647519575,True,0
60,0,60,75.70428015564202,155066.55182291666,12268.985161162042,135431,177646,42215,488.7820185498737,84.88017631870356,623.5064425597775,945072023.0,496.0972747250113,17963723.000311863,574924.4054523091,18078.73731202936,0.03098199547805593,0.75,537.7878486504253,3811.118149875773,16.811994049939724,28.597104270884177,0.23664368952780437,3.205170117756583,2.0655752011329067,0.030183492167009555,118.10702728126613,90.0,0,2.0982896180210746,-0.7247552171597,medium,14.295719844357976,True,0
61,0,61,70.47718930256949,145802.31614583332,10948.879984626745,131731,171496,39765,482.5436088983682,31.95838587922323,528.9665868396867,898059544.0,483.6007370927661,10719966.357854046,210217.222327205,4857.622546138178,0.019224182006261956,0.75,174.83379919301694,618.7311218615721,8.085799135601173,13.053262297035522,0.35912232901503277,3.175701652864931,1.9569174506994518,0.019098634359223533,11.91382388161177,90.0,0,-0.6036856057375727,-0.33319829331562506,low,19.522810697430515,True,0
62,0,62,73.38842975206612,128621.50130208333,10171.565826023214,121997,171307,49310,489.4996815758555,23.86950782489501,525.9350222890755,922290016.0,490.08131128075746,7633174.944950348,177237.44604180587,2905.12575581764,0.022684019388933645,0.875,107.30419184292677,193.02259948058483,4.549615939791236,6.997690673666502,0.6982211032561679,1.997787657142836,1.2377591407451534,0.02252190305274473,4.4012124085088935,105.0,0,-0.5021291965555198,0.43009927693535643,medium,31.611570247933884,True,0
63,0,63,74.99604117181315,153346.415625,17173.402767969477,121669,174186,52517,491.48438923841394,100.01418560605889,685.3943179133995,965989410.0,501.5573169514128,39248423.121520795,1762837.1805753042,30933.953800726857,0.04295182585960361,0.75,4281.156654860108,5811.4436119946295,14.315147813517802,28.132178575951794,0.18470561251352305,2.918788031073183,2.1157693319121016,0.04198408479546793,249.65506584115874,90.0,0,4.427026166425358,-0.5901102190910975,high,15.003958828186853,True,0
64,0,64,79.58549222797927,150874.25026041668,5664.862687189644,136758,163650,26892,482.36469804137727,55.84973244968011,569.2614729648251,905452395.0,485.5871647101579,5588205.402360008,720316.4069001268,7682.66707679842,0.11404260416183873,0.75,360.8409668377184,2281.2912968473634,11.471026246719527,16.87347983365266,0.20392758595891824,3.2085705909014086,2.5701793868908775,0.10813430125733413,260.2784429483734,90.0,0,0.3246313231201874,-1.333635327737588,low,10.414507772020727,True,0
65,0,65,77.47542679772374,156866.51614583333,7329.0865361179885,145341,171581,26240,477.49721778214735,39.892087246619454,534.8998971210145,881644691.0,479.16069498090445,8105241.250011182,216417.14093511595,19999.37110235785,0.025944140494438758,0.75,165.07162314989154,896.3962119774158,7.8034744424208755,12.401462344794098,0.2244428144221249,3.345548379612322,1.7736712015880065,0.02561457515172748,23.28217340271922,90.0,0,-1.152407380135437,-0.639021340996326,low,12.524573202276258,True,0
66,0,66,75.94067135050742,152197.85520833332,6004.78283063575,138757,163257,24500,484.28726039753127,42.17514868561484,530.4503275471639,907441512.0,486.12024618400744,4422951.5012631845,155729.59650079525,2719.116728656118,0.033991703236963634,0.75,278.1837600629187,1625.650295731165,6.697765764098808,11.512646148355614,0.26308908390353325,3.1803603296118554,1.6575629502867129,0.033582073676267435,55.29261412281289,90.0,0,-0.7151511342719526,-0.9122306060392993,low,14.059328649492585,True,0
67,0,67,77.81761496492595,145300.62604166666,10063.47239818908,130903,172012,41109,497.14426266643324,103.06307895498647,626.7705468510626,989853758.0,507.7148965175567,11685257.877500022,215064.5832163007,8138.186717762929,0.018059813907403775,0.75,1309.2434966566684,6805.436334261619,8.920885165838564,18.322489530923395,0.43005020386060844,3.1467211286027936,1.5281715580914441,0.01784027792614238,122.92297356935634,90.0,0,2.532887707922454,-1.2169632257771943,high,12.182385035074049,True,0
68,0,68,80.62992125984252,149540.91666666666,13166.181061931193,130124,185234,55110,490.22884309864236,72.26393960395046,576.2009530948583,942898159.0,495.5263823177497,15887372.556554886,318740.3251781762,8804.459958422087,0.019657227876125966,0.875,410.97166293513726,5324.452826393462,11.71981546152712,21.623332250317326,0.4920982985821506,2.693958911246113,1.4973788762600373,0.019571116543269613,104.68363975197538,105.0,0,1.4294387698393998,0.051718532776241284,medium,24.37007874015748,True,0
69,0,69,81.40641158221302,158041.52942708333,4519.396013431151,148537,169576,21039,484.40113919123246,62.836538901101065,585.6999230322192,916196714.0,488.45971611877405,4867822.316197625,248849.6663753355,22094.335881363357,0.048425954977105536,0.75,1101.16824641505,2261.36226243899,11.20994143203316,18.100401449526707,0.1761335131705424,3.0278243418535933,2.381073033553034,0.04761708066472881,109.55705306277315,90.0,0,0.5960616346385027,-1.2868785501896698,low,8.593588417786975,True,0
70,0,70,78.67612293144208,139257.81927083334,6398.708792082872,129700,152053,22353,489.4063394703363,41.872537126528954,537.8117695842213,926483998.0,491.1943347384685,674456.4276565477,26711.812682028838,2824.4265793831746,0.03794331097079691,1.375,163.21930126454765,1885.4932740365812,4.713258633817219,9.210957951171931,0.5968086906263247,3.189745539633613,1.259944594450142,0.03766063972256571,71.57980094108679,165.0,0,-0.6023902786864825,-1.4154186108446944,medium,86.32387706855792,True,1
71,0,71,77.3953488372093,134677.91119791666,7140.727629436043,122527,156090,33563,489.24386272037947,65.78065729206264,591.7094299599249,935756744.0,493.64628235542637,10623667.562055841,118331.57100299449,4604.664259192654,0.011011066680668532,0.875,630.2666552179787,2646.61569799137,9.409614043451292,16.405846819560075,0.35437922704135966,3.1022364527232154,2.0486955424818656,0.010971784261250131,29.15307299536773,105.0,0,0.9076460273421216,-1.3798478384961712,medium,27.604651162790702,True,0
72,0,72,78.42890809112333,149915.29296875,8844.675767113638,137568,179759,42191,489.12634235009267,89.30802630766128,636.9118775240128,949326729.0,497.21273348914747,35156880.325736634,1603057.327911596,37844.78536331367,0.04356396558864641,0.75,1317.36457193715,6120.048274266485,13.654359109318731,22.57721843587881,0.20676057304727613,2.9767964404928544,2.1788107675170485,0.04270827571838009,266.65713638658866,90.0,0,2.391881129762201,-0.8757896149633044,medium,11.571091908876667,True,0
73,0,73,74.05785770132917,143916.90755208334,10570.726514473692,130506,178748,48242,481.74375817430723,52.205422588027915,567.1727451084039,901641426.0,484.56419047170624,31871737.746675525,603697.269475129,10489.57999502817,0.018583348849697052,1.0,224.726064674481,1528.9374439992928,13.718415606783882,22.257427619023392,0.15327332345004077,3.0505261633855474,2.022331127260963,0.018493411249112326,28.431361240052706,120.0,0,0.45429954338019585,-0.2728571672015588,low,45.94214229867083,True,0
74,0,74,76.15866388308977,144593.16484375,10478.847435685788,124803,164657,39854,498.0831158877747,88.61144425491666,655.8282924322676,982804909.0,505.9039220893792,21621308.65640867,1055604.552637434,40619.64918682006,0.0464665137374228,0.75,2385.37127315985,5509.634814715548,13.427978016015429,20.494995237643703,0.14275051223298002,3.3673037294195107,2.613666574252523,0.045593479168697715,256.05998831990036,90.0,0,3.4095114912429034,-1.7669034231552425,high,13.841336116910227,True,0
75,0,75,77.45539177657099,144205.75572916667,9620.678712426043,126037,173543,47506,486.9982628576289,67.47052824741425,593.9545846614958,928203188.0,491.6498552916835,23133582.47257233,6200889.797667917,1221096.6638098748,0.2029381227052804,1.375,1531.5317249525597,1554.4428606962715,11.242003610958342,18.744291291405418,0.39908963377671136,3.0708134300012535,1.9446517601217845,0.20154506131115194,315.6586541250323,165.0,0,1.627414573417876,-0.8062504170360444,medium,87.54460822342901,True,1
76,0,76,82.62398320650748,151892.56171875,4680.209364067306,142488,163965,21477,483.6319971219536,55.49785520853381,579.963918117579,910002895.0,486.8058345715637,9851229.49316387,439651.17849758937,6277.04380556366,0.04269636249595397,0.75,412.6830066348716,2230.3713898945307,11.772421635881612,16.95120246185771,0.2287001907394003,3.199825998579703,2.7384108068333193,0.042296989698789894,95.27144172603752,90.0,0,0.3138326863136863,-1.4713690281562921,low,7.376016793492525,True,0
77,0,77,77.11637487126673,144450.81979166667,13399.564669150013,127940,172962,45022,490.12906008968724,87.22452336604118,647.6429571902933,951684914.0,497.8299037028946,17769334.30062124,960959.2492015909,29699.91270539515,0.05122385842623237,0.75,1699.6721614168546,5699.617883383329,15.42979049370395,30.378263711229536,0.248116841705229,2.831877852760944,1.9725808058017291,0.05066255741767857,292.0076434004761,90.0,0,3.0045328371005366,-0.7008566009651837,medium,12.883625128733271,True,0
78,0,78,72.3580214603507,138054.59322916667,5621.130053910422,127137,152464,25327,479.99754852168735,29.879803077000613,527.3798903559687,888155325.0,480.9266567978427,5923959.792136136,189638.6287145482,4632.218400331764,0.030995665233333438,0.75,130.20794923297427,402.82286425989685,7.254102004229851,12.08436416807064,0.4179557509963241,2.7575504435216347,2.0306664387804005,0.030566704243259,12.516758314165612,90.0,0,-0.9415667803295152,-0.797519943136457,low,17.6419785396493,True,0
79,0,79,76.37791154148128,151478.87890625,9645.789385582364,127622,169053,41431,484.8725928208991,75.00325153988464,619.1728324310834,924391369.0,490.63929623544897,10984364.53319103,1010133.4636006057,70048.56245561148,0.08372742884616391,0.75,549.2784424679296,3933.707932801565,18.565663141647242,34.27847668143175,0.18978778009395242,3.261329630436073,1.8301003508645846,0.07919021201659607,329.4429784740797,90.0,0,1.9729104991322657,-0.9063285840163376,medium,13.622088458518718,True,0
80,0,80,70.01823391508205,159842.51744791667,1909.327066012544,154620,166117,11497,473.04035366033565,18.788006107299253,483.8412962534649,860621435.0,473.41331346359846,570302.548293654,51268.135334456034,2949.2271648437895,0.0820920749658097,1.125,12.151564203500891,97.9872498262785,4.166652032272739,7.094205249381987,0.3561591522720687,2.8739779151096636,1.016340634180679,0.08160878422312394,8.126068733398187,135.0,0,-2.6398103588828303,-0.5588892669085571,low,64.98176608491795,True,0
81,0,81,74.91695228051674,149115.93046875,6991.95860898051,134292,161531,27239,479.18876868884206,62.92152026510055,579.8179022727726,896951016.0,483.3021764383024,8481227.49633677,364056.9653051366,12340.63560884306,0.041100967957893524,0.75,727.4168767481261,3315.0346728108107,12.474058557168233,20.39090829662738,0.1786824960940292,3.229281426660539,2.121008014439386,0.04056036246524651,136.29223483446106,90.0,0,0.4311617581223091,-1.171838286846181,low,15.083047719483261,True,0
82,0,82,83.62976406533575,154600.9875,6969.534889718999,137027,175737,38710,484.9238991487065,80.31800599179776,622.2847415076316,927752333.0,491.53043654699894,18770469.114825357,959206.7617374291,43818.23969524974,0.04850972499335644,0.75,868.1554267431572,4554.277705469846,15.773862869430651,23.998339602694926,0.24488413439558177,3.022983120546968,2.402681700941333,0.047763939046228235,220.97526876070998,90.0,0,1.7725689159199467,-1.0210452236204217,medium,6.370235934664251,True,0
83,0,83,81.53288451579492,159307.15364583334,3905.063299788019,152000,172451,20451,491.64695968726124,47.68905468262613,575.7965352396166,936925359.0,493.9544299894981,5568152.18973463,141549.24785650455,6600.596728283863,0.024762380820095582,0.75,451.5073959180771,1430.7093270531884,10.500840872404504,14.587928226722463,0.19709350551056856,2.989504822369551,2.4945060174689964,0.024408393496690925,35.452531580173826,90.0,0,0.3522287528759469,-1.2848824236165444,medium,8.467115484205081,True,0
84,0,84,75.31354838709677,164569.21223958334,8607.478206720776,152305,184537,32232,486.12392856788153,87.87876521556588,610.7762048251835,937110341.0,494.00318956671055,20205402.008490443,1119866.412299615,41862.63773842022,0.05241070545372218,0.75,1787.8953916078735,5953.907200410921,12.090225238208088,51.441116648167934,0.538921951612709,3.240995622659911,1.4000705704784666,0.05077655587536875,312.10088728498613,90.0,0,2.445744465671939,-0.6210811685626151,medium,14.686451612903227,True,0
85,0,85,79.25906324424452,155466.1296875,17343.011459976882,131266,192501,61235,483.8642197846735,59.90829049891655,570.1338715129067,912820172.0,487.5588030774681,26195445.36059826,572230.9138094425,11574.112484082812,0.021368444058073588,1.25,185.07316432893197,2345.435322190649,14.345801154588463,21.452070889605587,0.14390893471575647,3.025710841376383,2.2355610461723985,0.021281600311996718,50.13967191811876,150.0,0,0.9152952002810256,0.18556292125024712,low,70.74093675575548,True,0
86,0,86,71.07455012853471,142751.71276041667,11900.629069027704,125259,187082,61823,488.91471642243465,63.425769136608366,585.412888356256,933352044.0,493.01159025422515,54636837.76164391,3158598.730777448,24110.196958231565,0.05462856268566398,0.75,1108.651196228875,1455.0310553921934,10.280250944930387,19.508989980008778,0.11537983282069368,2.883254883036523,1.8929609628574573,0.052108576562370924,79.54088378176593,90.0,0,1.4545775434446246,0.2040102914667116,medium,18.92544987146529,True,0
87,0,87,80.22982501958737,143239.65,5836.843749773573,132942,159995,27053,489.4691451867658,77.80955097310861,616.3024825211262,943235982.0,495.6151433446117,9229634.592699215,310920.1720995238,7132.907880590341,0.03256497099179528,0.75,1506.4418543555405,2768.791870640337,9.713318389143373,20.04776617251775,0.26866300244276553,2.9615031722615126,2.0311723240822976,0.03205489242193011,90.19819192071297,90.0,0,1.5245581261948686,-1.4304067839785701,medium,9.770174980412634,True,0
88,0,88,79.77148792521423,170034.37317708333,12228.965480126448,139939,183790,43851,483.99596023627953,48.64446167905516,531.0519267280142,908614553.0,486.434346214454,11348890.818255575,3343470.8425107067,131048.42849583465,0.2255534200549894,0.75,520.8930872339836,1613.2505716170317,5.189751414907507,11.064013793469075,0.3484614193701412,2.528074539332523,1.283035115392863,0.21592224473412444,364.0997372539431,90.0,0,-0.1350355869518859,0.5596474203106232,low,10.228512074785769,True,0
89,0,89,76.71924290220821,148911.59114583334,9313.4001333442,136800,172791,35991,489.9490647543571,78.77475066392857,634.7260001282289,945621302.0,496.2414204757936,7901192.372405272,334601.7052267835,6465.5778853091,0.04059587045438459,0.75,917.0369690184625,7000.7515131475775,8.76379949362329,16.767929550921256,0.30024250298826355,2.9877578744204887,2.066237470244957,0.040064901455441664,284.24219738153033,90.0,0,1.6559061363334948,-1.1323571286488021,medium,13.280757097791792,True,0
90,0,90,77.19587628865979,150628.14140625,8292.079988801444,138819,176378,37559,485.6254155901183,63.121759435038285,593.8106591201704,920894979.0,489.71052753769754,29238203.48943185,700571.7798434438,18459.26634175109,0.023385729380678087,1.125,213.49783124894714,3958.0428733755252,8.575765670509927,15.898463640632839,0.49930129368457105,2.968420690504875,1.917307744260907,0.023330330051463004,92.58510524326222,135.0,0,0.46376088275315935,-0.6855707637680174,low,57.80412371134021,True,0
91,0,91,76.33795448600576,141844.70104166667,3036.6924045056403,138398,153540,15142,483.24497256330324,9.093660944617273,497.4704009783261,897056249.0,483.3305268417083,1700436.4221335626,113877.74732821416,1265.5828295248698,0.06272252550982566,0.75,1.2427234565544314,55.03269464368938,4.279571333611522,5.590839532189728,0.12154270282509583,2.7930876472852324,2.2706158228687094,0.060939002365386255,3.514512119173079,90.0,0,-1.5986534396745393,-1.1112531132307928,low,13.662045513994244,True,0
92,0,92,78.1832419733751,142987.15729166666,1653.7943927491406,139743,148639,8896,483.32763709959596,7.704480372135841,495.65850138742866,897273461.0,483.38903980343133,1469197.5636926503,99416.13853703643,1320.296688634053,0.06332504334929606,0.875,1.9835286538375356,36.67645097641513,4.136729376399103,5.401447585301494,0.16275223979705902,3.1061308598991957,2.580193675125704,0.06216884086065092,2.385862891329116,105.0,0,-1.6895564720957346,-1.6445860409155229,low,26.816758026624896,True,0
93,0,93,76.71924290220821,141785.20390625,2516.730583832788,138476,149500,11024,483.3763271598981,5.828207964183393,492.3804931088084,897356704.0,483.4114620762179,2657480.7801002227,70831.66122161597,1218.0132977311923,0.025950126733972696,0.875,0.4190733267772589,12.052844858698375,3.6941218618397134,4.797843423874652,0.272135086030795,3.0611256946155496,2.3427792852075022,0.025787963733901142,0.33872297832210674,105.0,0,-1.8033351025926951,-1.4346691632945872,low,28.280757097791792,True,0
94,0,94,81.17556071152359,144195.27213541666,1972.6600845090447,141265,148831,7566,483.1057338265583,8.508478990742748,495.26760394353266,896500010.0,483.18065386647396,665106.4721637034,107013.27446817781,1816.7782521766433,0.1382713840572509,0.75,1.1980743602541604,53.01636301183467,4.023730173880571,6.065491167478897,0.17598337501875883,3.1942104272200575,1.8398779202233855,0.13269339026819377,7.468917275385273,90.0,0,-1.749504537248492,-1.4144649945979744,low,8.824439288476412,True,0
95,0,95,79.91675338189386,142409.07317708334,6331.688017639375,134698,160219,25521,482.8585410179439,5.89135059692805,491.62445015776535,895438382.0,482.89447982538934,5926002.022400365,119949.67965929184,1241.4265369476864,0.019835595971304625,0.75,0.4327762545007739,22.079426458371273,3.465693666314837,4.465331882088184,0.2395397530475467,3.073603959219933,2.268536336978236,0.019750433971636287,0.4577941784776906,90.0,0,-1.682477696503968,-0.8277727834320322,low,10.083246618106145,True,0
96,0,96,78.30588235294118,141952.55520833333,3864.0645548348707,134149,149257,15108,482.80699784150664,7.021171247595545,491.3013840810453,895303273.0,482.8580474740135,3389285.5816050386,27067.71645115256,1489.0982685403226,0.00791953323542916,1.25,0.20183335669408292,8.824606871477483,3.549287033906695,4.8468001205463915,0.24298305127498052,3.3580563098987186,1.611342325686549,0.007905345640000923,0.07780630064369164,150.0,0,-2.0242827278624227,-1.444964138515501,low,71.69411764705882,True,1
97,0,97,81.38537089687257,141256.46041666667,5380.397039687978,136594,159726,23132,483.3558352723441,9.334916970236375,497.04808619256903,897484816.0,483.445968197757,8489630.645663144,644398.7277898771,4287.305802794664,0.0705161300934861,0.75,1.0758155993034504,56.145826549400425,3.8912121778256643,5.022788465046948,0.1889072877664792,2.613083770220269,2.2874404261604657,0.06818591864615611,4.029702539257313,90.0,0,-1.4592822624808581,-0.6581870921265676,low,8.614629103127427,True,0
98,0,98,80.96995255666842,147702.84713541667,7404.431137966835,134670,166562,31892,491.0009879635053,82.9779032214507,632.3929870629225,952194442.0,497.9631538619767,10627549.26541812,837175.7241207788,32507.648418455636,0.0728154113675058,0.75,941.4773118520409,7574.802794245144,9.769019598908464,18.326959599568166,0.23342849495131276,3.0966087635727324,1.8556092462022642,0.07081805181756039,551.63519690206,90.0,0,1.8950357726466303,-1.4387201038357134,medium,9.030047443331583,True,0
99,0,99,79.77148792521423,145633.81041666667,7090.457827469299,134799,155687,20888,485.5900153036154,85.83384085167789,591.8845423404683,933754027.0,493.1177457746949,9576762.176555526,452962.05730887107,16087.566753425279,0.04508964196213726,0.75,758.1359288866493,8239.933511484112,9.879840490054455,24.756831762984223,0.33677771834703757,3.055648478599581,1.3245188413016193,0.04456328284874427,371.5807414665972,90.0,0,1.3230723482219275,-1.3452022356933435,medium,10.228512074785769,True,0
100,0,100,73.38842975206612,148406.81666666668,28445.973898444263,68896,238146,169250,484.902401511206,67.8060908516475,610.630820519537,920555539.0,489.62026607149,289777206.3179397,41078391.22657079,11087108.858684074,0.12013238024189371,0.75,1931.4413331006238,2399.529561609473,11.341600321570548,24.20751713694049,0.051086493757459876,2.1466378004950872,2.2283349132745007,0.11786874779760484,288.3813300771756,90.0,0,4.497576913183293,5.750064655207255,low,16.611570247933884,True,0
101,0,101,76.71924290220821,179400.46276041667,12915.398554014115,148834,210558,61724,484.501474718978,74.1594857618961,599.4293929923232,922526624.0,490.14417096741374,18772450.042565227,4139256.6723466013,738173.2002054115,0.17502231246851901,0.75,1017.4171494784696,5892.46339104592,10.096610117477843,23.873196478589527,0.3146236403251584,2.8641523760962793,2.0948129564627305,0.16853405372393382,1031.4875911494166,90.0,0,1.7515720910646504,0.41208476174031217,medium,13.280757097791792,True,0
102,0,102,81.00848983792127,191879.86328125,8077.968829780277,175536,205558,30022,493.6551877313832,118.9153778290518,692.791275815499,990091436.0,507.7758476516319,26843872.299505953,282395.43675346917,11050.418437971504,0.010406165972026506,0.75,3219.935688895045,8496.435904702648,13.98221859817998,38.74195884769431,0.17884018640975813,3.2503781146611743,2.1741037469541515,0.010345245240512321,88.42572836099296,90.0,0,4.012230583500861,-1.1120688926391762,high,8.991510162078725,True,0
103,0,103,78.8418004738089,172208.3421875,14542.293521276119,151218,198496,47278,481.4453016453039,55.526848448856796,547.0222115903285,901911588.0,484.63678087305755,11923569.083371673,197904.9685265216,3617.6631158060477,0.016321935798758867,0.875,915.8780055260027,2102.0019801226013,6.188000705796226,12.438790868935076,0.4753219607017238,3.079974025593492,1.6104386586716763,0.016236622126429675,34.32506330422387,105.0,0,-0.2607749008923117,0.42355696914142327,low,26.158199526191098,True,0
104,0,104,76.09908735332463,176658.61927083333,12941.2422649146,156150,194576,38426,492.78972459063056,63.997939781088476,590.4682676239131,948239804.0,496.9280118471219,5709393.094660236,406133.932611817,6771.908606857042,0.06633683471934433,0.75,970.3371754910919,3389.358034199067,7.3179373539902,14.759380660123783,0.40539070791476406,2.948140455142985,1.5514376559939174,0.06456277982969533,224.90562055406465,90.0,0,0.919877732994487,-0.05907543514712452,medium,13.900912646675366,True,0
105,0,105,79.52368625420658,176198.88177083334,2426.0068991170515,169233,183676,14443,487.427334391781,84.31892853064623,623.6461704464209,939629138.0,494.66664332743653,4395080.23696484,384669.3271785335,15111.217542528751,0.08022533806357592,0.75,630.9366658136654,5313.6432915184605,12.266026355531835,45.13623362126074,0.23616940820984916,2.973779198595289,1.6973738409796302,0.07789537747067346,426.36905474938436,90.0,0,1.6723312747135537,-1.145302358741612,medium,10.47631374579342,True,0
106,0,106,79.62674961119751,170262.92291666666,8771.101135547102,154275,191732,37457,483.4668471931492,85.97508031952896,606.4642012551873,925946522.0,491.05183715248774,31390109.74584103,322006.6983725801,7618.296191031999,0.010151620150921612,0.75,1712.798160824816,5181.887675887141,10.321168598788791,37.61404555122021,0.24759840011960527,3.2251687261520097,1.5189211306721504,0.010104284115259229,52.614706970499185,90.0,0,1.6630927677275198,-0.347107960708502,medium,10.37325038880249,True,0
107,0,107,79.3010325655282,173386.1609375,9154.32921244524,152343,190558,38215,487.67179260407795,75.86392725625181,599.3655790685551,935343793.0,493.53734687500264,15887438.089705678,329331.3537413007,8612.973114284528,0.02029729378859828,0.75,450.7411003916542,2572.4116576261404,12.172068019311993,25.495471331581705,0.16785270424805304,3.1873523803284307,1.8602789664274986,0.020157827367887734,52.233292453841464,90.0,0,1.0284147323663302,-0.4353428963675925,medium,10.698967434471797,True,0
108,0,108,83.76006232147495,167123.77057291666,10575.028723819278,155258,188814,33556,476.2587931328165,32.4286875493459,513.4362659250068,875036382.0,477.36155879218006,6947278.910376843,265722.98997902405,2390.230237266193,0.036827241703519246,0.75,82.89554607655168,364.7270361284383,6.857112009667674,13.414923207982653,0.46363543528795104,2.9938662023600173,1.4636087046419308,0.036494597015600004,13.468717957013713,90.0,0,-1.4743397845273931,0.3636971235690103,low,6.239937678525052,True,0
109,0,109,84.63352127114301,164486.65833333333,15142.532458224023,143858,190909,47051,488.22259284465275,58.86293526952614,578.9293819510368,928612398.0,491.75821834769573,15673689.41071267,210164.63002167508,5732.859034475694,0.013226563493902587,0.875,351.03429873951444,1266.247861694686,9.098780328282764,18.94418965759259,0.2306948603014243,3.097696907312047,1.7474873277561755,0.013115187214789843,16.761334305217048,105.0,0,0.5224595144682065,0.11013869708958286,medium,20.36647872885699,True,0
110,0,110,73.49282296650718,154374.37838541667,16181.255846184778,127387,183964,56577,491.43125522171925,62.68932811855168,600.0100816393424,942468981.0,495.4135953612396,17880989.51831966,470898.3313971977,20056.91932112454,0.025631381833391805,0.75,569.7394125520473,2120.670350828328,10.960330360440953,16.500894344297915,0.17373507352783543,3.300106420261017,2.7030846917074967,0.025422248590111857,54.38134288666723,90.0,0,1.452571917647721,-0.40994427275204853,medium,16.507177033492823,True,0
111,0,111,84.67692307692307,159853.09635416666,18238.56023334922,134336,195166,60830,504.5359126351267,117.90627168690614,686.0010568063407,1030880164.0,518.1296903687982,32016651.558434315,1992977.8137562568,176075.51981604725,0.05829857304543278,0.75,2925.261582218555,11523.573344286611,20.50331810227474,37.12231981253273,0.3069412643574272,3.0047654130571875,2.4342751929546735,0.05737005797466101,671.8661809293405,90.0,0,6.026731393022755,-0.7766046416975836,high,5.3230769230769255,True,2
112,0,112,80.50314465408805,157112.07786458332,7220.596129586072,144064,173277,29213,498.81194791827477,105.56959957089762,656.3745001962012,998239871.0,509.86105925005035,9195098.800221095,665065.0565990232,35727.23408432034,0.06720618188798591,0.875,1499.6856428406402,9532.136453462692,12.079542458124186,23.690567592377352,0.280554335574917,3.2414821466758537,2.2583953055298096,0.06667333560949687,640.6857024544026,105.0,0,3.344114005775956,-1.995751743562671,high,24.496855345911953,True,0
113,0,113,82.22222222222223,161944.49947916667,10205.063161142923,142124,180263,38139,498.3197472935609,134.46207267676502,748.157795915403,1022986059.0,516.142053635673,17624647.912844315,2049703.084588788,247471.13290199876,0.10288732984256947,1.0,5814.518161534052,12120.584559367067,23.596856127128007,35.59265598530832,0.34480287857283143,3.113957174938177,2.6194335347887123,0.10222442658491945,1247.1574687741966,120.0,0,7.1782561256132835,-2.3014924704375685,high,37.77777777777777,True,2
114,0,114,80.80061585835259,153926.00572916667,12250.594841721313,133130,176793,43663,517.862194656796,123.9688246320964,715.2594983554718,1088830165.0,532.4936827187875,13633891.784915883,2716320.3915553014,238347.43750121378,0.16374660939623523,0.75,2570.7807089080707,10735.785867262228,31.915515734774747,53.97046853941711,0.12516662727658998,3.2486406327798454,1.9863662905166815,0.15896027831102338,1758.1122815776066,90.0,0,7.929778695218342,-2.117573355344136,high,9.199384141647414,True,2
115,0,115,89.3731816979635,138387.22630208332,4417.831592273931,129909,150981,21072,492.8167722854275,57.340469783622254,574.1570335999553,945240194.0,496.14141181807565,852995.9924168863,133586.22610463892,4630.184642415014,0.1347705352336521,0.75,517.665760728181,973.119652958031,11.81611390716825,23.72730125644845,0.3148602935686422,3.1435821022834567,1.4978828015247578,0.13122594198581738,131.28262701077327,90.0,0,0.9947932558048799,-1.5292237194141551,medium,0.6268183020364972,True,0
116,0,116,87.3855702094647,150652.19583333333,12684.493483255586,128885,176066,47181,533.1881760740645,173.61069397211412,929.3220378141192,1207412368.0,560.7408529496194,24177782.697912518,1128075.4621407355,43006.84954569322,0.04450201070989029,0.875,3486.6967940998506,17901.18169751382,38.02386717005434,62.61286265713268,0.30099545981991593,3.266191628070991,2.1488550034136744,0.044237805134142154,796.6830816331619,105.0,0,11.886294641614032,-3.311563601984443,high,17.614429790535297,True,2
117,0,117,87.83987522744997,149580.26432291666,6896.743985704569,136102,172709,36607,538.6597157459249,164.4895979082546,876.257522500419,1218090690.0,563.2149830992603,13251762.786870077,296029.20929790055,27951.509036534415,0.021805745606817944,0.875,1187.294282904137,22222.247690970675,38.541294955357806,57.7141871350086,0.15615206560695558,2.6752642342723294,2.7903652339457485,0.021671675341585702,484.59448570661084,105.0,0,10.977836075949392,-3.6544212349618137,high,17.160124772550034,True,2
118,0,118,93.07890665291387,155359.68229166666,12234.76547031633,136665,179214,42549,510.86889876786626,136.66780185315866,756.8062781606629,1073914060.0,528.8337354893944,18974759.37161248,1330271.793008851,43284.0767298061,0.06537503361976224,0.75,2820.0726041283324,16553.666633507753,24.01836840838305,41.57216560206483,0.19724371676128113,3.321847691326467,2.5996185040514077,0.0637308676296014,1082.2618877295256,90.0,0,7.416363263577691,-2.4396105412470077,high,3.078906652913872,True,2
119,0,119,94.49214659685863,161319.65494791666,5855.720794965835,148181,176872,28691,501.6581021628589,99.99390133999168,681.9368594904929,1004772986.0,511.52676544911446,9569862.329355871,426089.0897687619,21613.891041036797,0.04253419634173717,0.75,864.1031764573132,5560.813508541034,14.400308806946816,29.155949721968707,0.3486153859467368,3.0187679598156953,1.9714471094378143,0.041538787614082466,236.56726778841042,90.0,0,3.196828451382358,-1.5857090120854929,high,4.492146596858632,True,2
120,0,120,87.34197302300979,151632.07161458334,7116.086866786591,137283,162808,25525,497.81063401000426,95.78222374380084,667.6087744558718,986840301.0,506.94147760737627,2705173.031605159,397786.3568487306,16589.411619737606,0.12751406768803936,1.0,2530.4995239782324,8198.652164179268,11.03032761225188,19.18547054541002,0.26058501134134787,3.226389410834974,2.4754773475854996,0.12454544021862235,1045.5710010815335,120.0,0,3.4968419991673145,-2.390475995388437,high,32.658026976990215,True,2
121,0,121,98.63858207038274,139439.803125,2616.237935708493,136176,148702,12526,522.3603876865702,130.36443453873002,730.5643023328063,1113044200.0,538.3820766116445,2401408.81266234,203274.05719977268,9910.687014493591,0.07774594895070569,0.75,1198.2567840241559,16852.432332750686,13.446007521709225,18.275730700208328,0.32644672098128596,2.9936022367664243,2.975229012205171,0.07501570372596614,1310.2860897862076,90.0,0,6.021004067321775,-3.9252274776079945,high,8.63858207038274,True,2
122,0,122,119.75051975051976,145320.09609375,5419.528213523041,137212,163912,26700,499.6730201317813,177.5597267010019,797.5965073473994,1079810241.0,530.2834936086075,8168901.549219085,1274795.9211936037,29301.088344468477,0.13457153120910587,0.75,2779.2611988028434,29526.498984203,19.34459536808449,27.02161840550956,0.40875505123219513,2.9734242296793147,2.7191309273407316,0.13056846757950824,3973.5607510795157,90.0,0,8.265333146832175,-3.9147557163702422,high,29.750519750519757,True,2
123,0,123,110.40250914793518,151907.08307291666,19205.51978315807,134487,197940,63453,502.7759637283965,155.3785233078094,777.1676751142826,1063396436.0,526.2377363970902,21293057.655930065,5044162.2318250835,867179.691135196,0.18541714979584314,0.875,1606.763393280486,19899.025930943197,25.171002149628645,51.15462846415172,0.1762004745164794,2.774463387932304,2.3495355946671617,0.1820909217786436,3689.8060889788576,105.0,0,8.39048911105896,-1.4062404422680481,high,5.402509147935177,True,2
124,0,124,99.35018050541517,153129.83359375,16058.713299680003,138482,192208,53726,487.1484565919396,121.39437276946238,654.7480428387436,967872816.0,502.04602627647597,8966051.436881088,769120.2522401572,10318.417340656359,0.07892063342511423,1.0,197.42192968567622,14156.663273987113,15.129978464558574,22.11112673245863,0.42536775631401796,2.7421258883952317,2.596850701262727,0.07771650586373786,1117.3317534025393,120.0,0,3.4135900858542834,-0.852696367595001,high,20.649819494584833,True,2
125,0,125,101.94690265486726,142288.01536458332,1764.721859730832,138724,146505,7781,482.01920214775913,136.2077532377936,685.4693625486624,963437043.0,500.8942635739104,517098.3655737767,61540.893276287796,1423.1116616806694,0.10609357959557834,0.875,76.90895012145991,18055.42105985967,13.851249617664052,17.269819133396194,0.24670768410342495,3.119037865413781,3.271185130419865,0.10307245653570202,1915.670344925499,105.0,0,3.2263381262882618,-3.498419130477874,high,3.0530973451327412,True,2
126,0,126,98.14696485623003,137310.69505208332,1111.9632853166443,135743,142247,6504,478.4436505981954,139.6362332253174,688.0566107892422,953881361.0,498.4040573942826,80501.56507623613,11083.533522497895,1092.172710140687,0.11959279083173033,0.875,51.688243196737346,19901.040837596272,14.825619625605222,18.284520568348977,0.16316855159659066,2.691365887711205,3.2121324591277003,0.11782909964493067,2380.140607015206,105.0,0,3.404823518955208,-3.4181977515815585,medium,6.853035143769972,True,2
127,0,127,98.17547937245787,141769.3625,7416.088335844719,132429,178503,46074,487.0882402290011,150.10230150838763,713.9069945825398,997576914.0,509.6917251510956,26395367.73011888,1261599.6929943906,13993.189724650394,0.04559291275233403,0.75,179.60500741346283,20403.69979900889,18.578440571292095,26.17568411313331,0.5458596712602085,2.1871031469417446,3.029986195158481,0.04484294368116928,930.30969767378,90.0,0,4.86750705439573,-1.6486582553013756,high,8.175479372457872,True,2
128,0,128,101.92037470725995,131606.26015625,718.5833529823168,129800,134206,4406,494.0124853470686,147.42559475165422,712.5721360362801,1020605344.0,515.5411153988271,72542.5147410946,65202.550919115405,5888.776707482614,0.45394977843871204,0.75,778.1845341502823,19993.65017003108,17.457503620075435,26.236507814242184,0.4383830532746645,3.0420763461871916,2.908560331216354,0.41755952715607836,9076.567014645165,90.0,0,6.758092993213974,-4.6398653960674245,high,11.920374707259953,True,2
129,0,129,111.82527301092044,129976.64244791666,2196.8920098962744,125358,138101,12743,496.51256424613234,156.2014227951535,723.7209055307967,1040346666.0,520.5032285562694,492829.15939411614,169168.5816421074,7008.978777993751,0.25286529511853806,0.75,896.9356035998821,22592.24978458332,19.59125611041319,27.758169520920653,0.35459526544146647,2.9727470456991165,3.216253240165649,0.24280121749517142,5713.048774465507,90.0,0,6.810534932769519,-4.402435563103597,high,21.82527301092044,True,2
130,0,130,109.02208201892745,129746.72708333333,9273.710540616496,122999,162318,39319,485.70760229237266,63.47276583289642,584.6394187687713,921372161.0,489.83738824949177,15726571.73964117,807306.1187798923,14054.16691197449,0.0487859218628646,0.875,124.15883197419446,1784.4438227876387,7.444337929473154,15.24653450812767,0.7369985365670114,2.3346656612055052,1.4684661686355438,0.047971979762339904,87.10452282905202,105.0,0,0.44716579987621424,-0.27249101726868086,medium,4.022082018927449,True,2
131,0,131,93.27077008004416,124735.8171875,1263.895548994097,122949,128443,5494,487.4428501590629,83.53432967983464,645.2303844550222,939181503.0,494.54880083390157,188842.2931652015,51795.89809584096,3265.2816323718785,0.21236228201832746,1.75,209.7899831710274,8264.940080012717,8.728905054997627,17.61122751751341,0.5992359763332264,3.1496087659511343,1.807562094795597,0.20829405799096765,1755.3738984182569,105.0,0,1.596179143145856,-3.2656525453369087,medium,11.729229919955841,True,2
132,0,132,90.32932566649242,134655.16744791667,9307.494538359751,124205,155584,31379,491.778879574461,123.37424016275787,703.7659314816669,987139851.0,507.0184114322181,21943552.70982021,974329.998585344,26864.353551369935,0.042464185634925225,0.75,819.8409453032996,8127.182324539185,14.283109724108646,26.467428700931823,0.3622769733546326,3.1421538261426156,1.9415911622340989,0.04167515334166952,345.15664310375,90.0,0,3.5091726833478405,-1.8815836114314044,high,0.3293256664924229,True,0
133,0,133,90.60082304526749,131192.80859375,1238.7741214768457,128713,134637,5924,498.9428092319696,192.55672984723333,783.1183383796154,1098324561.0,534.8102664438577,239288.712700472,161216.88302731857,20325.573499030685,0.3830915930574165,0.875,700.7930102962001,35240.65017170475,28.411699958864837,39.06986852138095,0.5018257609353902,3.2171760921059365,3.280238766821992,0.3766931060506396,13500.77990625055,105.0,0,10.792900424292302,-6.205729203987104,high,14.39917695473251,True,2
134,0,134,100.75801749271137,133394.196875,913.0459278966024,131506,137130,5624,499.2014366331052,203.1518626773509,779.8900242682457,1115415374.0,538.9552427111488,126545.7026288617,170631.61200863722,21130.827461819666,0.5360579559268583,0.875,756.5004332485413,39181.09569639895,30.491433738810766,40.96263975705437,0.40469172926171754,3.0013986856806962,3.2904192470820766,0.5017508815944194,21003.874127942174,105.0,0,12.893754138121224,-6.896924850388802,high,4.2419825072886255,False,2
135,0,135,101.73618940248026,132874.48671875,1678.6669501455933,129103,136123,7020,501.1358999524036,196.7962352698714,781.0111713469407,1113085242.0,538.3920025757254,467771.442244378,133925.91040860442,18752.399820874194,0.21585295162841947,1.75,722.1038082723312,34657.36725488,29.652252052003384,41.062514210118415,0.46540306075124016,3.2277551096251393,3.2168784761474685,0.2117065580121353,7481.11087058761,105.0,0,9.743402473254108,-6.072594188366679,high,3.2638105975197362,True,2
136,0,136,97.47343565525384,131456.8703125,1132.6072580067132,129314,135096,5782,501.9099389860173,207.45659152170214,805.7323290645282,1132615005.0,543.0946733477967,147060.65221660183,114639.12894220585,26603.549342660885,0.3976337309139115,1.875,603.5636074030456,41504.6030115521,31.357473838566616,44.48243899427716,0.6086408473861468,3.18091562073243,3.140717817690324,0.38727973800076243,16504.027779315144,112.5,0,12.406680434314476,-7.219750709102544,high,15.026564344746163,True,2
137,0,137,98.7710774507002,132389.89010416667,1479.266818818106,129963,138772,8809,503.53257423886737,200.4050905696083,780.6568663106871,1127835854.0,541.9476484364826,374013.069564659,141574.9314461034,24335.980557789513,0.2622127119355004,1.875,682.17776847546,38281.449472018445,31.34339642981606,42.659786006658166,0.46682424535296363,2.9295642088186593,3.166691700237879,0.2493446279518945,10038.144895591722,112.5,0,10.784395370544008,-6.280775886791323,high,13.728922549299796,True,2
138,0,138,104.21711899791232,134213.89088541668,3129.999161727831,130017,150429,20412,484.4773754976878,121.8071679850538,675.8925935534401,958292404.0,499.5551156195547,4828565.233795065,535734.9759846051,23514.203087332375,0.0994345638010805,0.75,241.43181313096954,12278.035738475468,13.164238087095331,18.164391988289267,0.3678161986426833,2.7038169408711825,2.9448567461222455,0.09642178514219371,1220.9605625531865,90.0,0,2.8776457362750603,-2.546452346010407,high,14.217118997912323,True,2
139,0,139,122.19092331768388,144808.71796875,12373.453886239098,130714,175971,45257,482.53211480035264,114.73128868345367,669.3105367366858,944641960.0,495.98438525488547,26425236.966195893,1545177.1821026695,18451.342604868853,0.055206852975332725,0.75,418.7644961935066,13629.85781533521,13.420567404949638,19.680729091446075,0.24648800909714996,3.1300431675572433,2.992620110274662,0.05275592798599484,752.516763338876,90.0,0,2.9336945464495288,-1.420962203239131,medium,32.19092331768388,True,2
140,0,140,106.9417225373904,139062.20286458332,8441.691180425216,127576,158190,30614,477.5919108751292,33.934142712652694,533.2404235675934,880302948.0,478.79594753402,15712102.35104201,233321.04655098118,4983.654732345461,0.014627905468842963,0.75,161.72074867572047,844.7907925735583,8.130317240119872,14.269474848107638,0.23126251067454184,3.204819400698018,2.3245282281468063,0.014559808265361998,12.372147760183777,90.0,0,-0.8058355760728036,-0.8186670560714965,low,16.941722537390405,True,0
141,0,141,97.47223691168693,130826.93541666666,4626.347733138131,121821,142119,20298,482.80726555334184,72.32494171092141,617.5434779974307,915201611.0,488.19438020585955,4842234.4976150105,408313.1564450998,4978.408770509416,0.07769215708639884,1.25,608.6275366745283,5141.924446215773,11.433368106984638,23.627985227242988,0.18924392848164118,3.0217688450916644,1.9394199022537957,0.0766562583905696,399.5648939588766,150.0,0,1.1024488138843669,-2.0560602840075375,low,52.527763088313066,True,1
142,0,142,86.62394257882595,126630.67552083333,4607.680175920138,118212,143787,25575,477.5018610069767,22.908469946519247,510.1203289320399,877566049.0,478.05106971997947,3956894.9639050737,212721.587617641,6197.703886252244,0.05094134331815667,0.75,16.090818625529465,430.90432800012763,7.277004801905977,10.737191971807665,0.22702752361373216,2.8463447592163176,1.9195549800214948,0.049983323116453766,22.001786653252246,90.0,0,-1.2604447571835884,-1.0040210267159229,low,3.3760574211740533,True,0
143,0,143,91.09119662625197,129255.88151041667,4664.38805787531,124220,153137,28917,474.3682455514015,36.732473966985395,523.5475079425188,869278107.0,475.7883006456233,2193064.6890628026,97935.17694625218,1370.8758902190673,0.04272222427036865,0.75,23.07307454484914,271.4269501744701,5.742358816769228,9.455700598431491,0.28435707085519957,2.45422186034825,1.713886672674941,0.04111612954946784,11.638685262646257,90.0,0,-1.3980640374839886,-0.5317022847188263,low,1.0911966262519712,True,0
144,0,144,89.74292391586602,127132.08854166667,5135.746514573324,123703,148838,25135,481.1877432966765,18.508569890328243,495.8650522063088,890435372.0,481.5435717132286,1163822.3468919839,3344.0648500977272,827.8071263055654,0.0028630833920887267,0.75,3.233926138363696,27.42723720234805,4.21720982800766,6.140443921483756,0.1795347653069179,2.2125561047481237,1.6195281721507802,0.0028600435838255053,0.0813895507170095,90.0,0,-1.5399076305591395,-0.4669891117971274,low,0.25707608413398475,True,0
145,0,145,89.5104895104895,137017.99661458333,13589.837360817757,119844,174619,54775,488.71153256894536,111.08087175355335,672.0548712477229,964523221.0,501.17653789400066,36250034.23112292,544069.9017249724,31499.956808369956,0.014774228832753707,0.75,1038.8131252322928,11357.90128849798,13.031225446172199,18.729127415534627,0.19472207152593451,3.040656773567379,2.698124797641182,0.014715833440469167,167.81900692493008,90.0,0,3.2950910148022987,-1.1468881650284348,high,0.4895104895104936,True,0
146,0,146,87.34197302300979,117042.15052083334,1106.712666785126,115101,120200,5099,489.6404071839466,69.16917505463732,614.7645073402346,939003276.0,494.50187373254715,16039.46446109289,2111.610887916167,676.9187205660716,0.11215272748190883,0.875,112.95404059619096,5052.035426930958,7.454923166382671,9.819666959370034,0.30182168206395255,3.1624801623257337,3.2328891588581783,0.11089610869566509,566.7117051930186,105.0,0,1.029544805495217,-3.2475020897828144,medium,17.658026976990215,True,0
147,0,147,88.93463715903242,117613.09713541667,2490.0004815495104,114894,125347,10453,488.793667983571,133.5917897364952,735.9093689792213,985981502.0,506.7208463699055,924434.3987012814,83835.78648190825,5475.659732635398,0.08269901859757496,1.0,166.82671333923753,19082.981060650745,13.751142815506226,18.051709625489668,0.3400302241317559,2.9018418165321194,3.2263705286114903,0.08166436092083433,1578.2265046505242,120.0,0,4.0993629973661525,-3.966069073151491,high,31.06536284096758,True,2
148,0,148,87.88166341054982,121795.21380208334,4948.06418701495,115275,130657,15382,496.3431561921487,136.34120780985324,694.3532962245035,1017390542.0,514.7285242201303,3898351.9483862473,465740.09850827826,18813.751660616523,0.10626285845838004,0.75,3045.0950279079034,17757.275424395535,13.278821832611118,17.364238315881128,0.5603162434918482,3.2710964742536914,2.966128910691956,0.10240002629965725,1887.0451078874717,90.0,0,5.396372136570365,-3.8960550942526644,high,2.1183365894501804,True,2
149,0,149,85.37745604963806,150286.8625,30547.84967203519,115546,202863,87317,504.8227409049639,119.71302493094208,670.2764076219306,1033640479.0,518.822906272378,59653391.73396372,8083697.003752311,708457.6445886088,0.11810406127230806,1.125,1675.2556452227664,9158.356826853014,21.888227342862123,71.16644426275522,0.2533066565972918,2.415110065110372,1.431408508069719,0.11507106531357392,1081.7572398935815,135.0,0,7.002909363868892,1.1999921066670147,high,49.622543950361944,True,2
150,0,150,88.73949579831933,216427.38177083334,14163.516195066,177324,321339,144015,499.74852368486347,129.23585734926448,715.6997504440691,1023169896.0,516.1884285316748,40981683.838280976,27067567.910050042,12128325.237805387,0.3375952345720092,0.75,1204.9405814765073,9532.25237093677,24.680247252146923,44.226220525674584,0.21871722635786847,2.392491818227339,2.127474915903483,0.31343237520658546,3218.3805704005617,90.0,0,6.963561416927585,3.16300750771195,high,1.260504201680675,True,2
151,0,151,77.43536711478801,232280.04348958333,7618.160368278327,223815,249422,25607,480.69492878625425,56.585989796603144,562.6046406091837,899595221.0,484.0140378151065,4434139.394120812,112098.79470099189,7976.326030984888,0.024614298324200777,0.75,278.23571963269256,2523.421079141785,9.99181773910748,25.044199241795795,0.2997764418812997,3.000295690794585,1.4220716205710209,0.024489734547210245,62.136853537896755,90.0,0,-0.8526412678727906,1.0036999297812372,low,12.564632885211992,True,0
152,0,152,73.1041776837652,227195.23255208333,12903.372142778573,206686,248301,41615,476.02649805287103,45.765215200557094,518.1717377916915,878191418.0,478.2213731848811,24828239.8019261,340671.55473326787,5609.325105149037,0.013532394878129204,0.75,166.03118428473346,2500.855547679427,6.548346154507514,14.162811120029257,0.3358538735727954,3.193359470773288,0.8499841313157894,0.013419562298762762,33.85609719923622,90.0,0,-1.7593657093043573,1.807456320501392,low,16.8958223162348,True,0
153,0,153,67.28162844627673,210127.31041666667,1537.9835567485736,207330,213908,6578,472.0790743475996,3.0824453545154364,477.11005019806487,855813711.0,472.0891376702603,283670.90882578655,29573.773619064832,2729.334341504607,0.09359558713038381,0.75,0.11331838840455406,2.6671125696702602,2.972518174409061,3.7301155348131725,0.29288691721227184,3.2365561909607936,2.772857271655807,0.09098108024299344,0.3432255540314985,90.0,0,-3.187762356309442,-0.18691644411109296,low,22.718371553723273,True,0
154,0,154,69.83632112236944,218203.39947916666,8436.989653936096,208255,244939,36684,473.4641234407065,35.72818917918219,494.10241560371867,865707954.0,474.81025651042967,12388735.926553685,508554.2568782189,9240.33936689672,0.03940286322337989,0.75,139.79998822399634,926.3530799345831,4.468562578424067,11.42896766076263,0.31171157195274174,2.8316562337969327,0.546476271539347,0.03909750861690252,36.54036656844245,90.0,0,-2.5207471105220165,1.8052047903793291,low,20.16367887763056,True,0
155,0,155,69.90897269180755,219944.51666666666,11520.246736892786,210546,250823,40277,472.66902072094246,25.720877072369024,506.80686656680206,860457856.0,473.3683203031934,4414118.010994737,218622.08348088403,8240.042933949213,0.047106877643934716,1.125,55.246142041585976,572.5839751102167,3.9933633779980138,6.050615037372268,0.7331038492345385,2.521302798822825,1.2460903443964446,0.0467635309255448,27.019750134038674,135.0,0,-2.600148515598371,1.9396151180246848,low,65.09102730819245,True,0
156,0,156,71.29973474801061,238244.89036458332,4002.5652702244793,229295,248852,19557,476.0771241129651,78.25977388689768,492.5400998294864,893852238.0,482.46660020409706,4629892.271901511,181479.88667742233,4769.488821638851,0.03768159243725169,0.75,581.1454147581144,6543.896982421007,6.178269467667213,32.939701781834195,0.42961253403348604,3.1623290372977833,0.5693286037653386,0.037384346228009124,246.62214063538684,90.0,0,-1.1681479045737146,0.956881654915936,low,18.700265251989393,True,0
157,0,157,69.89079563182527,224166.15078125,8350.053124514414,210599,246275,35676,476.19896137451383,45.519423720366994,531.2551024152305,878735880.0,478.36959429921967,7440883.226350665,204186.62052020413,5726.620121713674,0.026688282899841265,0.875,38.422390455464694,484.4652473005409,5.812078399559668,14.417111183743982,0.14876739062173505,2.7270666556281657,1.3601085799719161,0.026124420043825876,12.956233857998237,105.0,0,-1.9020699635266407,1.4260719628312621,low,35.10920436817473,True,0
158,0,158,68.48407643312102,220171.4421875,11902.7916245339,207529,241067,33538,473.50410900023115,52.293494252604866,488.3879585822559,871452483.0,476.38298750191535,5142059.8775042165,113015.90775235045,5144.063980149655,0.021485016024330155,0.75,21.331458351927665,217.46829163805597,5.32574854381672,21.995607073708815,0.2646265473364363,2.8711406697292152,0.45038072922348926,0.02119400989675845,4.693794746651666,90.0,0,-2.145648753520049,1.883899698825243,low,21.515923566878982,True,0
159,0,159,70.42179722294996,221957.82864583333,8609.740283376743,205895,238282,32387,480.68035816217366,68.51235667138994,571.0684265922649,905270591.0,485.53841221841896,16463649.149528433,718783.9297237144,27950.12222888407,0.041764551161293136,0.75,352.72670710026273,4716.517484245616,8.903839164495418,22.262134900430553,0.30542440209963057,3.185560538543521,1.2210916572591815,0.04120567030476348,197.02500032507092,90.0,0,-0.4263952474609885,0.7935492952340123,low,19.578202777050038,True,0
160,0,160,69.89079563182527,218408.87239583334,9285.344343309049,210119,237264,27145,475.7275094866364,31.782988094664816,509.4363060274875,872934995.0,476.7880258716481,12130125.518885555,377175.5659780908,37314.274081845804,0.030066730241284683,0.75,155.2329307441276,1300.5516099944816,4.532577732473653,7.365485121051844,0.6146919807233819,2.7751040591064555,1.3313776517394977,0.029865182626852237,39.133401152813846,90.0,0,-2.296642159934694,1.4133287197234228,low,20.10920436817473,True,0
161,0,161,69.40988835725678,218104.09270833334,3995.03875792747,211119,229682,18563,473.3884502444286,42.81222223962205,480.90986677889225,867569323.0,475.32043002370165,3008275.856282325,248604.14000691575,4439.275922824993,0.07622809030846407,0.75,130.89222359496551,1942.1010021795482,4.534440757855182,18.531912939830676,0.5014423526256055,2.9118063700776045,0.8520161541539873,0.07330286129898196,148.11887867260964,90.0,0,-2.379520379215826,0.9726841456861042,low,20.590111642743224,True,0
162,0,162,70.65678507538972,232191.8671875,5217.670878806783,215990,243747,27757,483.5015978079386,63.662576661413986,571.0400922441415,913254600.0,487.6748084020744,8728131.475743815,337015.7749021576,11970.40529612444,0.03712806065497443,0.75,162.45531290377937,3341.7235211755724,8.518333488054907,18.56041156400394,0.23883441654277268,3.012836480782809,1.5676445308840135,0.036753612946896455,124.10884164701636,90.0,0,-0.7142511752294098,0.6495271303059368,low,19.34321492461028,True,0
163,0,163,71.31865216237729,222820.97994791667,6029.788006341585,214815,235941,21126,477.40557367947343,24.29313691195269,494.68383842592425,877463955.0,478.02326123448216,3976464.8206674345,93715.63084623833,3798.732139534792,0.023003463351573113,1.125,60.98761009669227,370.7039760050144,4.2260945755121755,6.7755404051354535,0.2798692361246151,3.2417057334095745,1.0849815325349317,0.022818452581184197,8.55047878966536,135.0,0,-2.8120095853523184,0.7425142280313135,low,63.68134783762271,True,0
164,0,164,71.34967741935483,228998.91770833332,5715.103467230033,216420,240707,24287,481.30586151831096,43.07888187905762,549.0865089544192,896682710.0,483.2298856608864,9453128.605371866,824656.3757824361,15229.782176518136,0.08011806013533561,1.0,136.25572144037284,1627.3622671328817,6.788145385728206,12.16568998304811,0.2854934360513432,3.165089683515692,1.477290716882245,0.07902913735074647,130.46122604026365,120.0,0,-1.5537681933399614,0.6079096994460854,low,48.65032258064517,True,0
165,0,165,68.62549277266754,230212.80755208334,10706.458476063994,215110,254126,39016,477.0700269658342,21.56253130397584,503.6832326583836,875753293.0,477.5570681975262,23929422.696482234,525505.286346799,8519.236359759372,0.021481244308635284,0.75,43.95358831420337,453.56989052957624,4.93334767099738,7.95482860996674,0.17831737920290514,3.148633069321732,1.7839959597072879,0.021344641006194248,9.764726873815423,90.0,0,-2.337297570982166,1.6208149374353968,low,21.374507227332458,True,0
166,0,166,70.87413483722122,232013.88984375,3775.993777595312,222832,238549,15717,473.4900473113902,9.824493369847815,485.1927452054492,861271087.0,473.59196105182855,1215707.2520633934,48594.44185824268,3101.3047224223437,0.03834174442559455,1.125,1.0927119002668766,90.64923696980733,3.5075491267932093,4.592870403545203,0.17479272081957364,3.1288162853542465,1.7366512095358653,0.038200271692956624,3.5139916206971042,135.0,0,-3.3577146543644467,0.6423849001757803,low,64.12586516277878,True,0
167,0,167,70.42179722294996,226995.39895833333,9486.657843343228,213297,249557,36260,480.05524278119736,20.663847837523228,508.6661478527116,886579318.0,480.4997718305043,14695895.229717666,383001.45038298855,7450.860126315673,0.025387288033881943,0.75,22.86004552853833,365.3467671861106,6.24206451481565,10.269623972628933,0.3916618840576979,3.2663912365997723,2.009476153053976,0.024614607332851934,9.30055089883528,90.0,0,-2.0170992769172518,1.2107180213628945,low,19.578202777050038,True,0
168,0,168,69.3498452012384,220655.2640625,4547.564910208832,213740,229503,15763,480.1619428983107,18.896841624180645,503.8279963128336,886704315.0,480.53364297544243,6194906.131105354,237140.10125509233,3526.590780317729,0.0368483284661769,0.75,19.924099836919208,429.37975534945474,4.625236632096386,6.365794799366942,0.15780124673743134,3.3184715057773144,1.9175626539714328,0.036114047956006756,15.858774590309563,90.0,0,-2.4733228560816802,0.32486748875449606,low,20.650154798761605,True,0
169,0,169,67.6126359399275,227793.38854166667,6293.520383644425,216388,240363,23975,477.41185822909637,19.01963534064782,496.9533176775909,876609903.0,477.7905701311507,4395498.109668668,149468.91940749387,3792.2328833637066,0.032859272342125496,0.75,36.049295166135416,329.1586574404986,4.61686630126673,7.133465388801185,0.28382288351516055,3.2156729882500503,1.483907826279585,0.03239834617135487,10.848773240947862,90.0,0,-2.693557198608737,0.9653874824580657,low,22.3873640600725,True,0
170,0,170,71.03594080338266,231385.09791666668,8090.76126177876,216573,245359,28786,481.4831965640657,48.645597815896465,562.1015468771279,899299057.0,483.9343579044752,9049382.38187871,351178.182594528,12968.863497324885,0.0373056870201167,1.125,355.6985763868083,2120.1590931301635,7.121766176956153,13.495911888336202,0.33728415418341495,3.242809895527189,1.5941903044380212,0.03699247795178197,79.13129724818845,135.0,0,-1.2689605309936323,0.6609333761491365,low,63.96405919661734,True,0
171,0,171,70.53266859092102,229327.40260416668,3579.035195789719,222295,238290,15995,480.00764093887534,13.688662609829374,494.62920447383135,885483705.0,480.20278512702316,1254505.6343881453,62532.6539714281,2851.360193750841,0.047377183418301286,1.125,0.7518240201511611,26.505807691160626,4.520653769615288,6.8691262212858355,0.17954792856828422,3.250103350955424,1.640331480503029,0.04723486210530619,1.3031476960526391,135.0,0,-2.7885675567083057,0.4188376878181413,low,64.46733140907898,True,0
172,0,172,71.71984435797665,225412.51901041667,5786.802482458925,210980,237422,26442,479.1905621707435,34.00146935286089,497.67012154167395,886194028.0,480.3953525916614,10624417.249466727,204101.5046253651,8000.748379628477,0.018834599483608293,1.25,141.7070901708572,1416.9690209545865,4.407620648752298,7.286579495542509,0.2658822389256273,3.187327228729101,0.8795668878394582,0.018778683931871074,26.70687858984381,150.0,0,-2.4844727014358132,0.7974067394230275,low,78.28015564202335,True,0
173,0,173,72.76824583866838,223344.02890625,7884.062004683607,210711,241111,30400,481.086287293442,35.67024993317505,508.2203753590321,893630909.0,482.4068641220638,7937959.236860855,310758.1189490596,15624.685038584192,0.03760228187713708,0.75,82.57458779889775,1285.1724611763004,5.482014820127234,10.239235190055414,0.1619808548478774,3.2635289140322854,1.0661920044827489,0.037201348145935086,48.363019427762396,90.0,0,-2.0179684422723567,1.0310644164367204,low,17.231754161331622,True,0
174,0,174,70.21943573667711,208400.2640625,4350.764648678168,199814,223336,23522,479.00198361779974,11.354512346629814,493.934963481883,881555809.0,479.1365413537321,3787292.627373016,120394.8142583078,3626.582902709322,0.030781168043046807,1.125,0.8362123539929636,41.35232548145926,4.133528902063016,6.036861413945885,0.19768248575460784,2.8287630080829356,1.6425707173820279,0.030527503269621507,1.3036540476586107,135.0,0,-2.6062753346877368,0.5142923693416092,low,64.78056426332289,True,0
175,0,175,69.37300743889479,221489.38619791667,8053.571163398513,205558,235178,29620,483.90785276748295,53.06480588595466,556.0094390478018,910013505.0,486.80867247179356,15674009.678738412,353543.63627526525,12214.482623646978,0.022041692918231808,0.75,270.62162659410336,3204.992942880135,7.544495640217092,12.48854217083034,0.15961683467516052,3.307555190205269,1.629678096067174,0.021868628773263003,70.66551194498223,90.0,0,-0.9394322021919428,0.5265547468432894,low,20.62699256110521,True,0
176,0,176,73.08641975308642,217868.18854166666,2823.791171286463,210505,224556,14051,479.01185669413076,18.477907715021654,497.90531165836524,882408161.0,479.368117345202,2522034.9518239764,174709.67736373612,5372.637417482914,0.06465658597534982,0.75,33.30657348607704,340.4928504713459,4.40806809399927,7.03057753881899,0.19058757533778276,3.1939179220471763,1.515648245914545,0.06365112443596237,22.079761846467854,90.0,0,-2.621251800153988,0.3409208516287524,low,16.913580246913583,True,0
177,0,177,71.34967741935483,217062.82213541667,3193.0653472570484,208597,222650,14053,479.342260981204,7.987993198795068,490.9644079942993,882557995.0,479.4088142680698,3240139.681211798,132201.6324594688,3669.504407746763,0.039159125839144354,1.125,1.3693849117382468,39.12256612081664,4.163754180800474,5.670738248136006,0.19544959417633584,3.2520099074943962,2.0374152497245923,0.039014134774334616,1.5711646157144488,135.0,0,-2.757888640515741,0.021077307578603897,low,63.65032258064517,True,0
178,0,178,70.1095461658842,222869.91666666666,5864.720362697516,209674,234854,25180,482.57080170774327,49.07898327759666,543.7292524740446,903487969.0,485.0601254075794,5748354.4134893315,240215.95925273583,9759.25511548832,0.04004714214722717,1.125,250.01405902727538,1911.5771657723635,6.448205236506742,14.673638543638742,0.2001217849722411,3.1447718460132243,1.296682115165724,0.03982218825464418,76.5932496252267,135.0,0,-1.3950756731899554,0.4427958507784743,low,64.8904538341158,True,0
179,0,179,70.01823391508205,219585.05052083332,3898.1716062028336,213562,228231,14669,486.77443357065863,41.71157836717652,556.9540628154027,916566547.0,488.558292272188,3879605.59965019,783674.156946343,23045.936133420408,0.16722571334768335,1.125,187.18872773433907,1337.7220820872894,6.4045397338040555,11.706515654595202,0.23301580331975616,3.3260611810470815,1.7339604911059725,0.1639195740473241,223.8687551513429,135.0,0,-1.1290620731255283,-0.22549153042406136,low,64.98176608491795,True,1
180,0,180,71.45135566188198,222034.50807291668,5015.6436818382535,210621,230658,20037,484.38457976073676,27.830761503195653,524.1169709587139,903947414.0,485.18344200501457,11411522.624016711,365092.4856548159,19437.33022473304,0.03095039527121894,0.75,91.29182544154807,681.739155046667,6.235559584456175,9.336750162875475,0.4560624234104602,3.272967290138065,2.18654751746962,0.03054415453069356,21.131046715832376,90.0,0,-1.7003426995713165,0.2929454692866606,low,18.548644338118024,True,0
181,0,181,69.67340590979782,229095.4984375,6111.9173050908,216039,239778,23739,477.2279702757459,38.113643267974886,525.2231430245814,880124872.0,478.7475174000035,5509706.312039306,225322.60131105478,5155.340956142424,0.03925354854977159,1.125,119.26970401904344,1273.738249446767,6.4631037974370775,10.043535479080697,0.2075869974617339,3.2856423791071903,1.855784197686353,0.038658374090063494,50.037999762909514,135.0,0,-2.095569783778928,0.4796721090833123,low,65.32659409020218,True,0
182,0,182,71.01977909067557,224037.38645833332,4632.816237870776,213541,234089,20548,477.82756341437846,53.373286036288555,554.192779961558,887684690.0,480.7992179910793,9838098.297288405,783311.0748792422,19931.822608146165,0.07361018320357934,0.75,339.96012496811215,2742.3697722275533,8.384681628850567,14.755363278491915,0.2669707949396584,3.276270493112577,1.5659541375021864,0.07153659916553387,201.93995152883193,90.0,0,-1.3115711462107114,0.3781429186543796,low,18.98022090932443,True,0
183,0,183,71.75707241110823,219523.28177083333,10947.693045168475,202457,240800,38343,477.1091434088484,46.23857307766157,510.57667469420653,882321179.0,479.34449028291056,28147411.8604005,586916.1293454365,6806.059312720026,0.02042077144011161,0.75,278.80967119786214,1910.6618791129408,7.162157870013325,14.405006600992161,0.368485997126686,3.2087065433728856,1.0354511991415096,0.02008603532923024,39.03761030413964,90.0,0,-1.6212334226608471,1.4777954066835683,low,18.242927588891774,True,0
184,0,184,71.12992855252712,222736.23619791667,7393.66364620551,202215,233784,31569,479.7773528316979,28.139598829912845,512.7976622909742,886956078.0,480.6018573752082,19382487.786678288,476875.62426125415,9151.471786525304,0.024001573699695883,1.125,125.6732548609628,591.5367212369415,5.696258300934917,9.187192846287724,0.49101642959809433,3.1446890129321234,1.8195456758787198,0.02384638833338019,14.221813784544606,135.0,0,-1.9866339209464265,0.7794900190113211,low,63.87007144747288,True,0
185,0,185,71.51577858251423,223493.65885416666,7004.1819609025015,210537,236625,26088,480.7278137409169,61.151660699403756,568.9623430725694,901780825.0,484.6016472427809,5884258.313920221,430888.69220417895,55127.737221765354,0.06764051937543945,1.125,533.8810615059795,2885.977507054842,7.984543072418881,13.519535765274457,0.4142109650204066,3.335637780648981,1.8306291382678483,0.06742739116688233,195.27665800240095,135.0,0,-0.8499295111393784,0.16868483629181577,low,63.48422141748577,True,0
186,0,186,71.85031185031185,221836.9484375,6626.811753835988,208884,235035,26151,476.656751194408,42.97595777923041,534.0956802223653,879546591.0,478.59021240122536,10053711.642724821,530031.8016264271,10167.321725868514,0.05003174118887691,0.75,300.456919441746,1491.0167417947855,6.763331375366007,10.171145454256143,0.2680516090977529,3.3503825216316865,1.7090158393615589,0.04933251208801272,74.6481954749481,90.0,0,-1.8054543333678137,0.5953820857822534,low,18.149688149688146,True,0
187,0,187,71.09230362338006,209687.87994791666,11261.633148841116,194688,235902,41214,478.05670276251607,45.06918739188301,536.4986266972509,885386660.0,480.1764703818101,15410270.17212178,871771.3744385574,12319.267857262432,0.053501415880468,0.75,145.08800351761994,1954.0934059924396,7.681101231937694,14.787518885222497,0.3302819444156808,3.1873552332942774,1.48829659827149,0.05234214054592313,104.60026539916218,90.0,0,-1.2376104219076602,1.1194964059737842,low,18.90769637661994,True,0
188,0,188,71.36809499225606,218019.96276041667,7014.014957488587,201133,232378,31245,480.01712724043483,89.68248826651467,516.4781199066531,915684062.0,488.32303974503736,18323377.692349274,761800.026345805,18813.124173200507,0.03987648615473415,0.75,294.1954370600645,7716.564565659937,9.542706745714916,34.18380628649694,0.39729035286680736,3.213410596876236,0.6120028212870005,0.03907800678750516,307.7493565508054,90.0,0,-0.04697710626674056,0.7342051432755472,low,18.63190500774394,True,0
189,0,189,68.64353312302839,194932.59557291667,3889.9109102682737,189796,208565,18769,476.2374610331802,13.40295871888552,495.5185666190131,871609953.0,476.4260263605988,2542080.9075705404,218658.3528543605,4783.039762002467,0.07906584330908588,0.875,3.650042484410909,123.13185331588168,4.741213708288564,9.321793317887927,0.1843170796966003,2.6438790480061396,1.4099553503754838,0.07793924250303728,9.814589663939934,105.0,0,-2.4851643243898507,0.49034350396483745,low,36.35646687697161,True,0
190,0,190,70.2439024390244,213706.61875,12923.84115553509,191798,233514,41716,479.1167334525609,44.93132777173461,523.4510417128522,889235207.0,481.218940285587,25111920.570857324,1083007.3152013025,39204.355974019214,0.04128237615064298,0.75,65.3184350505707,2425.3717370676027,7.394056312926967,15.255252074331368,0.3369043151252979,3.303541637132819,1.226649032394816,0.04087940042044336,100.16639073091378,90.0,0,-1.262941093347447,1.288939213711084,low,19.756097560975604,True,0
191,0,191,74.83803002370293,215857.15286458333,9323.923814983797,194575,235156,40581,478.66182758654736,31.11613192016429,524.3411103411408,883527778.0,479.67213683324013,33714387.22567051,2299246.7123283446,20491.191494798666,0.06380747982823728,0.875,74.59921368759555,1021.3693420952723,7.818608679220025,12.871194323747387,0.23411957421963994,3.196705721843754,1.8659728689812867,0.06254776464504314,65.2348111727523,105.0,0,-1.4728788372574255,1.0739173857849313,low,30.161969976297073,True,0
192,0,192,70.05473025801408,214588.67734375,10869.66598580786,187649,230481,42832,479.37451689403764,63.27371426739007,532.4543973290411,897805403.0,483.53230539911533,30939142.988782167,1275636.330074218,16286.68220002653,0.03957785107177056,1.0,386.345527123592,4007.2257116760675,10.246049544513705,21.56294238398745,0.3480972749457629,3.083659337175463,1.3868679424659716,0.039300843120599144,158.63696027875696,120.0,0,-0.4318381543026006,1.0166823617104221,low,49.945269741985925,True,0
193,0,193,71.07455012853471,211569.92369791667,10460.110613045483,195569,242223,46654,485.6804236334432,78.29777598526752,605.0341633580872,929341500.0,491.9512329743671,30801655.03387034,1710888.1599769057,30985.190114049998,0.05257230069804285,0.75,417.1448785312019,4346.780525050633,10.689453522097077,26.24013837074714,0.26057959356663074,3.0021675758715025,1.5082508003323858,0.05116285425273634,228.57282513205647,90.0,0,0.7334958721664812,0.9599712197238444,medium,18.92544987146529,True,0
194,0,194,71.29973474801061,216912.73828125,5496.955408260972,207059,232532,25473,480.56901611660953,49.952950976032795,531.7488126526032,896416806.0,483.1582313926774,8370392.526434181,458709.2500932258,17459.08209782554,0.0518517034386298,1.25,149.74673038550594,1586.3117841536932,7.67148124858556,16.31446750052382,0.34422576094706325,3.1874803306998,1.5388112646939676,0.0516283135664724,82.30481989657966,150.0,0,-1.4087227151666297,0.3067318450017197,low,78.70026525198939,True,1
195,0,195,70.62532842879664,213050.83828125,3375.328201193793,207789,222530,14741,476.5899148753758,9.304200301408052,491.5558462413024,872542138.0,476.6807265918842,1094605.6148212324,234667.61294197832,9868.919174884624,0.1752372692313045,1.125,2.99106867448659,72.91542480618514,4.200470121323511,5.30068305541487,0.23608490112364863,3.1841733976361724,2.543598157280491,0.17432768074214375,12.952737197107709,135.0,0,-2.581241758114783,-0.08061898386097072,low,64.37467157120336,True,1
196,0,196,71.81298701298701,210396.09479166666,4472.96362819323,199252,220611,21359,479.34226924434057,67.0429791335586,562.4467974818574,899572885.0,484.0080289989172,13820284.719923759,1392102.255096653,32934.04413797312,0.09131341041275781,0.75,274.1609321866229,4982.882655468924,9.784055920609125,21.593531981872776,0.26218490930868515,3.1851614783597184,1.4002405073940007,0.08755865180723965,455.09532236785907,90.0,0,-0.4722215114162883,0.08107703488495539,low,18.18701298701299,True,0
197,0,197,72.11267605633803,206737.24791666667,7337.16245873219,197247,221945,24698,476.37766450810835,36.087107830222976,530.1131477351939,876433761.0,477.742565189402,8581037.552941935,255140.10749868778,7481.625599632381,0.028850060732374345,1.25,30.53964946972175,560.859696760802,6.4520121419914105,10.68411793810681,0.33341477575720263,3.0877325164556964,1.8463400363895093,0.028608477132912594,16.20968637462257,150.0,0,-1.967341703031973,0.3271194664334243,low,77.88732394366197,True,0
198,0,198,74.69669823393909,204649.57057291668,8894.765496177999,191261,228013,36752,486.543323668303,64.09039170097404,587.9323066064653,924794819.0,490.7463541531239,6723853.559809028,364358.88839102426,54301.35674118789,0.05101269641774556,1.25,681.0603601719682,3521.229212215335,10.20215827340564,19.0748072114408,0.1807714230619492,3.201150510309511,1.7048920263797682,0.050589702173553325,179.67840951645596,150.0,0,0.19156462226284157,0.01312879015624208,medium,75.30330176606091,True,1
199,0,199,68.19535126664925,194548.71328125,8907.649812996098,175673,226369,50696,479.3762189155019,42.69225643029627,519.5080751670399,889436882.0,481.27350646055027,19283668.55193867,1058872.1782046657,10601.370778135217,0.0520249980545621,1.125,229.39000035691114,1852.5104317596033,6.008493281115538,11.354857267815357,0.37168859440366175,2.835806510834043,1.2133912541773966,0.051577667925028464,96.42887660640392,135.0,0,-1.2895246561730702,1.033074543633689,low,66.80464873335075,True,0
200,0,200,67.87626722121134,212989.59427083333,3786.8883564803364,206358,223537,17179,495.60153417125224,38.99735306211221,522.859971689117,949024029.0,497.133457150844,7761947.238268709,388714.64622777735,7112.412445141457,0.047649595597846775,0.75,36.67744686703515,569.7092699475745,8.021242576735752,15.079337337358746,0.4289537474159739,3.22077397182256,1.3615085297896763,0.04664883492675847,27.194065916944293,90.0,0,-0.8202686731523328,0.05431265931919875,medium,22.123732778788664,True,0
201,0,201,72.03751954142783,210118.94270833334,4214.661516886736,201278,220182,18904,487.37253579090464,60.05594312522303,583.2647267504967,925972627.0,491.05875916016066,5113148.590611444,266289.4404797949,11094.150692545762,0.049399471425041544,1.25,227.3550572711456,2455.1074560821876,9.576901668852502,17.435860384268295,0.23423587961861775,3.241714159720696,1.687331272412269,0.04881116738164293,121.3304100935635,150.0,0,-0.4177432202664923,-0.45732093424707154,medium,77.96248045857217,True,1
202,0,202,75.19449589838581,201355.06901041666,6293.63555557799,190202,214904,24702,476.3425098131149,14.765548342653124,492.4228365934867,872141599.0,476.57130429025693,10985560.285923425,864947.5255891623,18285.258810854684,0.07287577771929181,0.75,5.0103461772692945,236.02491480431652,4.49184311951047,6.836715313399219,0.2202841713106717,3.2486254253096716,1.4365308226748281,0.07041446540382738,17.27337500521345,90.0,0,-2.5310138807211633,0.5388217707888265,low,14.80550410161419,True,0
203,0,203,71.3312693498452,201736.55286458333,9935.54874285686,180898,223814,42916,476.6402384792855,15.687059751905602,496.5606709724987,873338883.0,476.89831283120515,25904839.35854848,1101495.5994999935,12313.264078985869,0.04076797589739896,0.75,4.9483398640643355,176.4826713442632,4.938025987007693,8.266471319623378,0.38028301744333465,3.21935327637357,1.5971843713869385,0.039088874369122596,7.235609267568903,90.0,0,-2.1579152627215468,1.1380420205015407,low,18.6687306501548,True,0
204,0,204,72.56692913385827,194173.07057291668,6645.358720563351,181674,215222,33548,477.8500642300962,27.531922204831872,515.4753140536984,879738972.0,478.6425499524671,1664431.3945321043,441904.1613089247,19628.62089827417,0.20786058680757963,0.75,22.32803028987215,289.909148749118,6.3522670852470045,11.120005554605783,0.351645034108455,3.101226515406711,1.6004466339247503,0.19061398451299896,60.46854636668514,90.0,0,-1.6346929952463256,0.475225291802993,low,17.433070866141733,True,0
205,0,205,73.94223263075722,201081.12682291667,6009.540656263217,189493,214590,25097,478.6628165450631,43.72546317723767,510.0403893542077,887155231.0,480.6558104017018,6802989.412843341,1174930.740497956,18029.495403655947,0.1469407377624462,0.75,222.65919326289327,2112.6403605138657,7.696876753756892,16.809142411614147,0.286769580237529,3.1185783662118607,1.1320665919174622,0.1402835269526352,310.5798739383902,90.0,0,-1.3151605939004782,0.4259280290982357,low,16.057767369242782,True,0
206,0,206,71.47880041365046,198911.51067708334,3284.3514573990606,193793,209874,16081,478.97991313735184,8.4646383621233,493.009381218518,881254684.0,479.0547017738858,2015827.7569153076,271516.90396965656,11043.130853593526,0.11813363477895708,1.125,2.872652605584785,39.13988043111893,4.360730555448133,5.686596408943098,0.17967310928493885,2.9400002189361896,2.489648203210213,0.11715956559414353,4.74186997492081,135.0,0,-2.342290067443217,-0.20042163907785893,low,63.52119958634954,True,1
207,0,207,71.90637191157347,200508.24635416668,5707.971101226304,191973,216432,24459,479.55147794763405,32.25634301818058,502.15157055128856,887078752.0,480.6350920050123,4780259.346177043,593899.3081853802,15924.035137622304,0.1101837100462863,0.75,143.7816719855885,963.5629924940355,5.720048000738183,9.993336685823717,0.47692784119591575,2.9122489763061545,1.2053713414937446,0.10196183415217248,106.27912908634103,90.0,0,-1.8515383273693378,0.6178820405216988,low,18.093628088426527,True,0
208,0,208,70.21943573667711,197686.94895833332,4010.842005777766,190663,216775,26112,478.0989367816037,15.665319058889422,498.72447294652306,878684143.0,478.3555116991093,1621015.8981560043,270618.2448930245,12070.761266476335,0.14215346311267066,1.125,3.782984750753543,93.48369523537414,4.850647974415011,7.017866234279522,0.24162183975667526,2.6806765023016057,1.962821987135874,0.14073165437909319,13.431184485390574,135.0,0,-2.1878856149536148,0.33377751365904035,low,64.78056426332289,True,1
209,0,209,70.69963177275119,203932.10520833332,4525.925858534587,194833,216895,22062,478.5040795395906,25.739930867284013,513.5555957899572,881774201.0,479.19588706194395,7136705.251840169,643314.7505711786,13364.361992852546,0.08254626237985628,1.125,55.51668756887166,775.7383779023216,5.593536275352551,7.927957307464105,0.25617019595866725,3.1334297109435303,1.9461722963002392,0.08085895940561975,64.116849942829,135.0,0,-2.062562153856898,0.04307514198911835,low,64.30036822724881,True,0
210,0,210,70.20822752666328,200747.08958333332,3671.0004127644133,192487,210807,18320,479.118336016958,66.70873247315325,513.3945850727091,898577030.0,483.74004888559034,4354648.642286568,739803.4967859689,30424.447900940868,0.14435537797464576,1.125,60.93079351355788,2892.729007539132,7.587251593286112,29.7349412433619,0.193130429449263,3.100796974645196,0.5865313492342338,0.14111241914041706,417.72534463950797,135.0,0,-0.9382401976344297,0.05684918558034856,low,64.79177247333672,True,1
211,0,211,72.28235294117647,200880.56796875,5623.8403343086575,192899,223129,30230,480.13416543243824,63.72927855321015,537.4709758962824,900826513.0,484.34516386603536,9196578.273582553,1051742.6724412497,39387.17795254655,0.10223294243642826,0.75,236.28552739102827,3652.4833544614785,8.524182005681798,25.889263927123984,0.22891879344217972,2.8715080322556137,1.029260018725012,0.09982820092992613,373.5063534691092,90.0,0,-0.532361356625554,0.584459300831938,low,17.71764705882353,True,0
212,0,212,67.02988627347263,199102.8796875,4100.456478476399,193169,215500,22331,474.6951287101175,12.795848436829521,493.32778149851185,865916924.0,474.8675593871762,3853065.2946731704,471551.6080076331,11194.618869367852,0.10875740462054044,0.75,7.087025037213992,108.98946878364026,5.487047390212668,7.695943323171302,0.25396535970275896,2.800879050704456,2.1224417330969683,0.10496515658163642,11.962169160500666,90.0,0,-2.4117517583260724,0.4467186742500457,low,22.970113726527373,True,0
213,0,213,72.11267605633803,200335.71015625,6458.883021790044,192876,221987,29111,477.8428973105225,27.635855150246982,507.4786689327005,879734688.0,478.64138454588317,3975368.5975185186,1075426.024078246,16178.238066917025,0.21224230992814647,0.75,163.408229380796,582.1306118687153,6.752290302544947,9.177257230997402,0.3917604810151721,2.8986975024152533,1.765582851384639,0.20090284908728553,123.76498805282955,90.0,0,-1.6594750047939195,0.6345924022932425,low,17.88732394366197,True,0
214,0,214,68.71165644171779,192185.26640625,3961.6474823083126,185269,205427,20158,474.9756979692218,52.548374391131645,495.73919532665366,876914862.0,477.87367087181104,3202563.8509462057,637232.8640461626,16472.833730431543,0.16524593418455785,1.125,42.570265680004304,2942.4382992032747,6.157556521893785,23.56954823830013,0.24775614877724345,3.088523993876575,0.44720390720755,0.16099340876333137,486.39121146645124,135.0,0,-1.5870441051290127,0.1585531321321332,low,66.28834355828221,True,1
215,0,215,72.64319495533368,209643.62578125,5363.781869546422,195436,223432,27996,481.24417902712634,53.87463308466375,547.4811908868144,900473994.0,484.25038558322285,19166552.45774878,1239480.8646732613,22986.35084293916,0.06067255720035081,0.75,173.4171834819667,2209.4983247394503,8.424593722653805,17.920033102573992,0.27047095959652184,2.962994955935903,1.5070577732014396,0.058874991415505465,134.11658604903394,90.0,0,-0.8907927564936834,0.5291954604445804,low,17.356805044666316,True,0
216,0,216,78.92490118577075,205714.17213541668,4411.319860101942,194385,214456,20071,481.005679218928,18.28958597046609,505.2162903107417,889731734.0,481.35327192804385,10095804.94894225,684779.1510116063,12076.150595319956,0.0634485970200685,0.75,10.18231070775545,167.049922649726,6.053375646517462,12.801690446771852,0.2515969138447461,3.204601942622534,1.370083824257712,0.062130148566711514,10.662531821456147,90.0,0,-2.0548600099415615,0.35064391352006224,low,11.07509881422925,True,0
217,0,217,76.25254582484725,207278.76171875,4161.1240363736615,197277,218836,21559,483.5336882253596,12.553394591268043,501.5884766663664,898415675.0,483.6966150021967,6266347.719397193,501039.40261666756,14988.968260900814,0.07387372742940444,1.25,4.9871157784441555,63.98811418748191,5.109773121030622,7.226112112509317,0.19720845787818939,3.1445340943358184,1.9445630681251123,0.07355561342848962,4.800914233637051,150.0,0,-2.1162790025808493,-0.017183382633166842,low,73.74745417515275,True,1
218,0,218,76.13879467779807,201670.265625,5761.563187251647,182508,217783,35275,480.97876276913246,32.55036681295422,523.1786501161499,892416371.0,482.0789319339555,16477651.452477518,1829967.109208179,23648.902991792973,0.09982763672693891,0.75,148.2004919328473,1019.3457455712144,7.708606397350207,11.94809359500847,0.3593677860184101,2.9120436963755885,1.8614804443625736,0.0975839022897752,101.85870442476082,90.0,0,-1.2365679359485606,0.5709999006343143,low,13.861205322201926,True,0
219,0,219,72.32016740779493,203269.65572916667,5267.5022505056195,193756,218727,24971,482.01934144690483,56.0075752154015,543.7869987399058,904241257.0,485.2622940332544,14624522.031936103,1644033.268490155,58924.10951997891,0.10069118614160716,0.75,278.23645090645095,3719.702798296851,9.629574568488195,17.685737983624083,0.23894925140841602,3.0682871962924603,1.6347897528505662,0.09824335715780846,374.64197804090685,90.0,0,-0.5473615580982473,0.15725424877441724,low,17.679832592205074,True,0
220,0,220,73.73118837571354,206624.68359375,5313.096477116475,198289,222870,24581,496.8573004678794,84.74525738266863,668.2380937853907,975547913.0,504.03267322375376,15343172.583207553,1576527.7366041827,33397.960255666,0.09299348771296775,0.875,1618.3736079868859,5536.554359752726,9.96414654189172,17.49922083311205,0.21130998804702442,3.132853730569464,1.8755617101441375,0.09034612849623323,514.9564933135562,105.0,0,1.9046401276574756,-0.716668220713722,high,31.268811624286457,True,0
221,0,221,71.70124481327801,201801.43671875,2960.797788947626,196772,216448,19676,474.55778088572663,17.884470008399262,486.03065745602026,866015776.0,474.89466375888736,5070439.807291802,407876.1674121787,11997.37314073554,0.07429014367136166,1.125,4.308305009299026,19.49860369854973,4.685125860873562,9.494168997627373,0.1900397482079283,2.600728625892477,0.8995130372924247,0.07251337612505776,1.522844213827565,135.0,0,-2.8064410950674543,0.7223077637657321,low,63.29875518672199,True,0
222,0,222,70.7740916271722,200766.19635416666,7559.416905766942,185162,216338,31176,485.95486193915497,53.780263005556854,526.0088328314079,917930667.0,488.92171615837435,10431274.46117422,977694.0483727796,26954.8104473761,0.0854932322485405,1.25,187.25501581987686,2636.9471986181925,7.203426738063007,14.815155851066306,0.2262261825245216,3.284995442934326,1.2408757555574508,0.08353404898057643,225.52663251085193,150.0,0,-0.7942679092359809,0.031933858884506915,low,79.2259083728278,True,1
223,0,223,73.4833204034135,203340.92708333334,4554.31968893908,195177,213687,18510,479.1691764284398,24.651970138794784,506.13535738970063,884009546.0,479.80289627182674,4575256.145502876,468165.8766014869,23964.633108400994,0.09238803123892074,1.25,36.5276273763734,456.81353416423883,4.5807954592794236,7.741294886999765,0.28104289513875674,3.3484922324675193,1.4244304383269557,0.0914762585974482,42.2964910959664,150.0,0,-2.3143963197083783,-0.0707034480844424,low,76.5166795965865,True,1
224,0,224,71.68265491314493,202288.4140625,4162.684056480035,194893,213711,18818,484.6978569656877,12.536922749877712,503.70859578158144,902742478.0,484.8599663605634,5403637.800928224,1028225.9365809149,28760.24006992148,0.15915272892359447,1.25,3.793488850345561,116.70740896426656,4.7459453330308845,7.9590858368690505,0.25068253303116794,3.1359797627953516,1.7339297548914894,0.15418144901351588,18.73345535118859,150.0,0,-1.9359849746284834,-0.10613467044291838,low,78.31734508685507,True,1
225,0,225,72.11267605633803,202482.39192708334,3717.189152870227,194963,211424,16461,484.7721496767112,11.848792655946943,502.1118898173613,902954615.0,484.9169320508239,5964274.347078331,769513.679193232,26418.744405617203,0.11382990273774549,1.25,6.798026381651338,90.28212516300547,4.649443788908053,6.895716321175145,0.18585840914003632,3.2345657720586383,1.942457633285199,0.11195747504797265,10.390635428999623,150.0,0,-2.0367425111408153,-0.3084349072906626,low,77.88732394366197,True,1
226,0,226,75.01583949313623,198784.69166666668,3298.6320151051086,191015,211595,20580,483.8812716349083,27.753469425474727,521.3576024244566,902059546.0,484.67653141468145,2491495.382957949,971029.4530122026,27779.193235214265,0.27820769906777315,1.25,40.28480818988417,590.4700326021372,7.065856792280903,13.168834070063596,0.4395282948446201,2.9581239108784803,1.5590320206211556,0.2659982482517542,164.55151683778135,150.0,0,-1.2593373821356841,-0.11485305698178508,low,74.98416050686377,True,1
227,0,227,77.81761496492595,189723.34739583332,2836.9109688994417,184294,201883,17589,481.39752299150837,9.455191108072027,496.54617087928693,890238627.0,481.49036935462163,1393761.6749493077,287051.5367486672,19820.803666783377,0.16879089454593743,1.25,2.8898522807190297,71.65751408329047,4.427921817222523,5.628080558626045,0.24213167975540137,2.8712521390762187,2.6454937500167137,0.1663899316760697,12.263926797602645,150.0,0,-1.9747508752402607,-0.4953580511597522,low,72.18238503507405,True,1
228,0,228,72.71962125197264,189014.24322916666,2151.211476438429,185351,198192,12841,482.0667525201599,8.73890785511666,496.5072003125797,892664534.0,482.1459554904856,1582840.5118036922,337185.95126647234,19035.983790120994,0.1738912286256902,1.25,1.7496868635806453,29.376943170653668,5.133078487008101,6.419014308366069,0.1446064924087228,2.8692276319085277,2.777004134337344,0.16788722178872573,5.282283969837736,150.0,0,-1.9033306641404106,-0.6942474003164999,low,77.28037874802736,True,1
229,0,229,72.56384065372829,184826.68046875,6734.168800496232,175334,203813,28479,481.74168326375485,14.128192189287136,505.4158185888077,891934676.0,481.9488097384756,8494239.423097758,420744.1624597896,17674.954440864214,0.04710178504817944,1.25,8.619345974608013,93.87394109718984,7.151459133924134,9.843957207717507,0.1561154933520776,3.003307969064884,2.6589848710267248,0.04682139767821579,4.468731980233473,150.0,0,-1.5763818610884837,-0.24063749251785382,low,77.43615934627171,True,0
230,0,230,74.11580594679187,177518.22942708334,3722.4004464971213,171812,193464,21652,480.4318383040648,16.791593073427435,507.11497709429835,887411362.0,480.72519057582855,5118441.159767094,743776.2125184509,11311.56438829516,0.12663191422696027,0.75,2.937253360399364,96.06429038812189,10.70758312668318,14.681743146499292,0.10598289175398762,2.4032091780269575,2.351916664475805,0.11761087471061621,12.291436894929415,90.0,0,-1.1967985399539327,0.014153607811059328,low,15.884194053208134,True,0
231,0,231,74.89720611491829,192791.45130208333,10048.85669122381,178279,229471,51192,481.5514316723523,48.21106382503045,552.1804038352667,899389778.0,483.9587668601875,26308068.689977616,1788742.6016638125,25064.960294924913,0.06360680153909173,1.25,31.23126720684921,379.40085763523155,9.501707495031242,18.299481114195835,0.3813973858842728,2.616885008900065,1.6948148174842945,0.06267330802937039,24.19608185690446,150.0,0,-0.5636079768267204,1.0667802822163877,low,75.10279388508171,True,0
232,0,232,75.31354838709677,186682.96796875,12348.703214569783,171793,214092,42299,478.0415417511364,35.34379860428004,549.3561664878382,882327935.0,479.3463254679057,6433773.337842908,434099.9056698259,19584.55673192774,0.06302759570510987,1.25,239.253412263976,736.9782946805888,7.647825318100403,12.448793070679564,0.409979419125802,3.0529538197308392,1.9202063693625742,0.062455517446249276,46.51299759627458,150.0,0,-1.0935264309434762,0.4630941592338673,low,74.68645161290323,True,0
233,0,233,73.29798515376459,174698.83828125,1011.0191700102902,172416,177351,4935,473.51614723616154,9.09199077238444,488.2717993060416,861312791.0,473.60342691917185,307946.9301961715,56896.777230303655,7862.151859634665,0.15265866047634727,1.25,1.3167889258112244,60.74268243513689,4.908448919960208,6.210075248667401,0.2614810107847747,3.24824048586928,2.896635578500185,0.1511482939119628,9.425555194764494,150.0,0,-2.4578948110722467,-1.2990153558760336,low,76.70201484623541,True,1
234,0,234,73.86534962308292,173485.79453125,5871.589783184903,169054,209489,40435,474.367199548367,18.60921710845943,492.25196782094656,865422885.0,474.73207493148175,252754.54866531558,50982.51089434257,5452.06321116916,0.16489102345340567,1.25,2.447178529909697,54.602717529426315,6.2491079665021285,8.991020283998246,0.1746528456315331,1.7755828282694421,1.4206571853436203,0.16281269163692058,9.168389000217726,150.0,0,-1.94746433276711,1.0503661681533636,low,76.13465037691708,True,1
235,0,235,70.81967213114754,187462.83828125,9033.420821002184,172819,209367,36548,474.85333574430143,19.71406676317862,507.8803005074532,867357446.0,475.26238531555737,4234626.319744558,974615.0191206611,23186.62547112846,0.1862643930816687,0.75,5.4189389764813685,329.1577137509848,5.385087847071976,7.2635248665263665,0.21453513954690398,3.196990428897192,2.522029839486698,0.17611698815984445,61.49662617305849,90.0,0,-1.781161037332816,0.2735348166191469,low,19.18032786885246,True,0
236,0,236,71.11111111111111,174412.53958333333,2381.352390404941,169916,179902,9986,474.6406125424155,12.565033672613417,495.0898908279182,865695710.0,474.80689879764105,762359.8237380834,92590.19582698263,5736.077628541311,0.10757719466932994,1.25,6.538034053006245,149.48940711025267,4.381745736823015,5.54778533848101,0.2539161586061066,3.2505260672353002,2.84178636270729,0.1070370359582786,16.189228244371698,150.0,0,-2.3671405892329394,-1.1638725475115732,low,78.88888888888889,True,1
237,0,237,73.76947040498442,173375.18151041667,1814.155244793074,169251,178648,9397,472.813112950691,14.589944204042741,493.062065030221,859258008.0,473.03816574352646,1260071.1680141918,200413.90483558527,9859.57419842398,0.1363040326891571,1.0,3.5321047689236096,141.6906221473149,4.63236607852283,9.662994864095765,0.26160978953325786,3.1131159336168257,1.2348542133260099,0.13492238037577037,19.44930722560378,120.0,0,-2.6086912591740057,-0.4952155515953383,low,46.23052959501558,True,0
238,0,238,75.16778523489933,187254.04244791667,9920.928131198012,172112,211790,39678,481.8815806961068,85.60337317139705,611.7059745842297,919825134.0,489.4259855304988,22636574.278767172,1488800.9104101923,54457.876235399315,0.06157200946683945,0.75,280.62989392534485,4842.140355717297,12.575923528255135,22.909638496574956,0.2734083629270366,3.2691018854138987,1.9455912194586835,0.06093547544582627,298.2018838314576,90.0,0,0.8858466791126831,-0.06646968315371586,low,14.832214765100673,True,0
239,0,239,82.21409921671018,190949.12421875,10363.966853379798,168979,211181,42202,481.05541281103467,69.19176976434157,588.3663719659517,907014955.0,486.00597856190683,19119432.255582806,803545.1957980106,25734.210838922056,0.04028055592782067,0.75,317.16026528903365,4002.679077871263,10.286107992504022,19.72671219166732,0.21822153452451556,3.2556779132756652,1.9582349781430999,0.03943949061476242,161.2704190132389,90.0,0,0.21594921387278485,0.14166418533701586,low,7.785900783289819,True,0
240,0,240,91.34899912967798,205723.33229166668,8949.238114772383,184092,227315,43223,495.88677953876766,106.92569486526449,684.0460464460472,988173321.0,507.28374933931207,21832214.158996146,1571933.148796629,59316.72121300223,0.06699493079339815,0.75,1248.0461964798483,8301.165446708988,25.991249336488853,39.298032745310344,0.14231000588856832,3.1954388322646388,2.4067058416307128,0.06568148717148985,556.2029995376101,90.0,0,4.067958722557438,-0.5486066714059168,high,1.3489991296779777,True,2
241,0,241,93.63134978229319,213588.78515625,9866.72052564508,196753,235452,38699,524.7066985154125,227.87783142264936,740.2774464498195,1256622434.0,572.0536911172179,39951880.44766163,2667378.0429708324,37296.514384285045,0.06253149234993609,0.75,627.0565885530149,9619.924790781097,36.9294730559067,75.06280240638144,0.1723622248410713,3.3137288238874545,1.591565176711087,0.06102047215978034,601.6107849540386,90.0,0,9.83967013358771,-1.56331378996429,high,3.631349782293185,True,2
