ppg_mean,ppg_std,ppg_min,ppg_max,ppg_range,imu_mean,imu_std,imu_p95,imu_energy,acc_rms,ppg_bp_low,ppg_bp_hr,ppg_bp_high,ppg_bp_hr_norm,ppg_f_dom,imu_bp_low,imu_bp_high,imu_jerk_mean,imu_jerk_std,coherence_ppg_imu,ppg_entropy,imu_entropy,sqi,fusion_ppg_imu,hr_candidate,phase_id,sqi_flag,motion_weight,hr_cand_weighted,ppg_hr_smooth,artifact_ratio,hr_true,phase
0.3531544130933701,1.1084249816416034,0.3224553501177503,1.7434893358978272,1.8802112451775612,-0.20704330190749942,-0.2132182680129657,0.16822637447938957,-0.20296196971251415,-0.1897313910250993,2.012314598331642,0.2055642809516869,-0.054197528930122044,-0.3108919683530142,-0.23412112793606005,-0.1892357591880873,-0.3634462795901336,-0.3376380371207574,-0.4767154253022759,-0.7560065576586448,-1.9774746518326256,-0.19440003640169015,-0.308581468234701,-0.2372678397837568,0.3478579653940876,-0.17312581035789382,0.0712470499879101,0.0089182427267728,-0.1858861286869089,2.020033450778388,-0.1402857987322309,116.93311582381727,2.0
-0.0096696884670202,1.0078115867210138,-0.1576489997276927,0.3358641541748763,0.5706651249557505,-0.8288635749737729,0.7719295905864872,0.1407449413363239,-0.4237581326395497,-0.4207150662996173,0.2251584947953289,-0.0505353693405066,-0.0880167337502935,-0.4872462744237518,-0.9913959928821482,0.1339221112563299,0.2897570218349614,0.3848406940847857,1.1336525900041634,0.6902450580071186,-0.3145195477559137,-1.6524839826363409,-0.5020471548719151,-0.0680833312539622,-1.0115343467380704,-1.0,0.0712470499879101,-0.4168874356398787,-1.005760024714203,0.855562834314364,-0.1228503393469618,69.44680851063829,0.0
0.4608776820857833,0.3921876567900789,0.2217406330075275,0.2701250460440337,0.128361826824339,1.1403551960790659,1.1524147288021502,1.3287886767658814,1.0206516713148006,1.0900292231039093,0.0360954352906334,-0.0213383784774184,-0.04423263695763603,0.2022955570721287,2.9205676771334486,-0.1584675162028276,0.9311289301052094,0.5576869572524923,0.1809240650405136,0.2573464775803518,1.0644261665987722,1.612389727584265,0.2076970616293658,0.38277088404992393,-0.3318381906719914,0.9962134439544704,0.0712470499879101,1.244475260268263,-0.1939557970485149,1.1363385274429807,-0.1194385914993859,109.59830866807611,2.0
-0.0740880200990597,-0.9420668466152669,0.2890499736504981,-0.5360681230539996,-0.9463341804661668,0.07540900385341806,-1.0007872347267326,-0.7410315478418877,-0.23612876807414152,-0.22963322665087635,-0.3373215349996445,-0.1046890777129437,-0.08765878455146789,2.421245548247748,1.4484328677921203,-0.5258833873309702,-0.5247160035460234,-0.837089830371439,-0.8309143674147155,-0.4957673147069482,0.6376872474924804,0.14638910836268723,2.5281988486776745,-0.2954671637360057,1.7072502775262457,0.9964834667467539,0.0712470499879101,-0.1991507104712981,1.6916512137546111,-0.9890925890849838,-0.1400921049923311,90.32932566649242,2.0
0.2634297331714825,0.0506670358490028,0.3611671243393953,0.297228957019291,0.0300909726072554,0.5239703542405786,-0.5261722805799217,-0.3596856575536948,0.1215545973361447,0.1365849748469207,0.057885939553422,-0.0730083630164104,-0.0862768219129444,-0.5665586988887032,1.0333219709204853,-0.3696150856121349,-0.4664731868656377,-0.6382587425180017,-0.6578066077832716,1.197889020879099,-0.2377623059413725,-0.3804815352317418,-0.5661033711918639,-0.271570262552353,1.2541195068155262,1.0,0.0712470499879101,0.1515015963478129,1.2263991334185185,0.5185003768011274,-0.1387577875805823,83.54312354312354,2.0
-0.8096599282861986,-0.72284644216422,-0.5399233184904689,-1.0218639667864675,-0.7691155825896386,-1.6702781718191313,-0.8221456967072249,-0.9031080424580464,-1.4760554698238482,-1.5200225731807877,-0.3284192018738052,-0.1062533684651271,-0.092740643289104,-0.0580348301233338,0.6283783781599586,-0.5180663162779747,-0.5020089815444311,-0.6037681269785586,-0.6916123476322208,-0.3265347111954896,0.6909444406955692,1.482689455916947,-0.037085004591978,-0.2744998494910383,0.8009887361048069,-1.0,0.0712470499879101,-1.5629733018408134,0.7799673017919746,-1.3293235606395193,-0.1276208735930409,71.11111111111111,0.0
-0.41837430061554,-0.4286342281104993,-0.1565805974952646,-0.4502570331373056,-0.4160296533091442,0.4977514735243776,-0.147084833893796,-0.0971183724577133,0.1811193776485927,0.1969700799990066,-0.2904387055702806,-0.0967937638903382,-0.0903400792812136,0.2046067518257265,1.0333219709204853,-0.0343692029726964,-0.3748438342492809,-0.5672918103778025,-0.5539009977790822,0.6841677381681681,-0.616322553569215,-0.576692336026258,0.2284586831842948,-0.2014951008141723,1.2541195068155262,1.0,0.0712470499879101,0.2125933712855405,1.2263991334185185,-0.2390286509654342,-0.124451857734089,81.55400155400156,2.0
-2.092427723180573,-0.917487734289116,-1.756940301449324,-2.0363746703384664,-0.8867433290261753,-0.8128078682565558,2.251975562221148,1.564138326212049,0.44952717708513207,0.4299783613333668,-0.3406070049454602,-0.1084151743847118,-0.0930001508935749,0.0619344438674527,-0.35241741117463543,-0.451974467974247,2.8551362822813777,1.094689609191086,0.3341817728970643,-1.0379643921408055,-0.94326547665599,1.5901185696488855,0.0743396575915964,0.946245268898096,-0.5584035760273511,-1.0009255802985797,0.0712470499879101,0.3233439949391846,-0.33323339614000774,-2.7946509095020513,14.691964140655026,98.14696485623004,0.0
0.3531544130933701,1.1084249816416034,0.3224553501177503,1.7434893358978272,1.8802112451775612,0.963572986110512,-0.2132182680129657,0.8673198954836316,0.8441618104726232,0.8644256483936379,2.012314598331642,0.2055642809516869,-0.03198562572412037,-0.3108919683530142,0.23766419311345519,-0.1892357591880873,-0.3634462795901336,-0.3376380371207574,-0.4767154253022759,-0.7560065576586448,-1.9774746518326256,1.0819524790701647,-0.308581468234701,0.461191823638024,0.3478579653940876,1.0113930496384391,0.0712470499879101,0.0089182427267728,0.3218162371264607,2.020033450778388,-0.1402857987322309,116.93311582381727,2.0
-0.1398566645837343,-0.7491885114281813,0.1454211002044131,-0.4777920202314536,-0.7370230038662872,1.1881962411602085,-0.6833386986514695,-0.3924125973783843,0.5863050297745285,0.6052472389229012,-0.3093848685549323,-0.1005449254093303,-0.0911458626534883,0.2975650099195083,1.0333219709204853,-0.5081747417777476,-0.5060230001691579,0.5175001733501265,0.4386490706842169,-1.0162409282960068,0.478828161546211,0.2993082310977737,0.3205189690914578,-0.2731129792913843,1.2541195068155262,1.0,0.0712470499879101,0.6231546233592261,1.2263991334185185,-0.5000208577503832,-0.1375802872484734,81.85079282557837,2.0
0.4706543386200122,-0.0969128780053465,0.4650158213314072,0.2297655444128853,-0.1530056344249183,1.1856051167352197,0.9762285371692468,1.2014795664180977,1.079170954452287,1.1019999080353853,0.0352790284649362,-0.0633368524354524,-0.08307218544565755,-0.3858095066672711,1.8409307658937044,-0.1156953944988899,0.4622372881934664,0.6907015282291008,0.4870055745813926,0.6907840313121629,0.836741064347587,1.2603887883436464,-0.3796259616541894,-0.020590546642200464,2.1603810482369648,1.0195129573013504,0.0712470499879101,1.267570396233729,2.1285822863093715,0.6839927533792112,-0.1128408678205121,100.27649769585254,2.0
-0.0049650898317127,-0.4729892762495932,0.1989480520490612,-0.0284221085452557,-0.2243525041762007,-1.3079942261892634,-0.747143231567647,-0.8520325218638338,-1.2160037258227785,-1.245317262421098,-0.3130712450098321,-0.1015315202205584,-0.0916002665840184,0.2871906390413561,0.2234347853994319,-0.5220992167674082,-0.5115281988590639,-0.5275118793996971,-0.5732146332731879,-0.4229178955539905,-0.9745064345897764,-0.0658303495299858,0.3108013296581884,-0.2764335851351712,0.3478579653940876,-1.0,0.0712470499879101,-1.2734041930876807,0.3335354701654303,-0.5889301603244853,-0.1381046807729439,70.21943573667711,0.0
0.5288763555558618,-0.7036787078446323,0.8267055904160685,0.057335096856577,-0.7122948274183994,1.2346858725263958,1.14019353640809,1.4344978495390626,1.269541058636772,1.284154420892159,-0.2855310807545037,-0.097942817761705,-0.0907805087690518,-0.0013990390128139,1.8432091564415387,-0.4244031981435717,0.855359877855216,0.8572313164845411,0.4672554243769265,-0.3423522519994845,0.6971067259835351,1.9300172569123648,0.0241243106572688,0.360204183587558,2.1603810482369648,1.0,0.0712470499879101,1.296426857531536,2.1192627966716073,-0.3090327128066669,0.0246066454572806,99.43146636645088,2.0
-1.5877688117041782,1.8568808196537616,-1.8016707415803144,-0.535879527251985,1.0370885296223968,1.4268428390809278,2.6328148773228697,1.9502072576734728,1.7466543833792902,1.7356297837575752,0.0385545773885819,0.025077463101529,-0.02006717045419416,0.7191553132359467,0.029197443449733903,1.8243780200740145,2.854793811243028,2.777129972669153,2.9814821063143913,-0.9357986483760338,-0.7004034776416427,1.1102787160729184,0.7378227531747048,1.3392790830468073,-0.5584035760273511,0.46354750129614264,0.0712470499879101,2.4369641481846687,0.08630241517425434,1.4304785302430671,-0.1083693099368375,110.40250914793518,0.0
0.1399491047046439,-0.6613530628968907,0.2821409725474631,-0.2674538164701881,-0.6029773697881201,1.0186708002280591,-0.7090842096651063,-0.5161013845607085,0.4587000630940021,0.4771326748570519,-0.2769989837867964,-0.0971521055592885,-0.0912769315847151,-0.0680884005550713,0.2234347853994319,-0.4868006923827989,-0.4935030172595001,-0.6907482361991705,-0.7032435690688131,-0.1667788497625839,0.363816288834896,-0.5596471115976862,-0.0503180650379006,-0.270866823184732,0.3478579653940876,1.0,0.0712470499879101,0.4947883941519219,0.3335354701654303,-0.2601081303295567,-0.1371754990785211,68.01771294607971,2.0
-1.078989435049435,-0.0450037966143366,-1.3001271202708138,-0.8700174039071937,0.1423812164771715,-0.4750663857690843,0.7725710885114874,0.6341047184476529,-0.1718995474487973,-0.1623073111260693,-0.1885579238817301,-0.1014519918086897,-0.0928159642038652,-0.8240002008354905,-0.9913959928821482,1.3775091222398883,0.3775998244049954,0.3603678176679145,0.2549070086624872,-0.2644814501289672,-0.0609705615884963,-0.2691963163264848,-0.8272033396978852,-0.1706161744541082,-1.0115343467380704,-1.0,0.0712470499879101,-0.1523068277577932,-1.005760024714203,-0.5813233477242379,0.0198003401606712,83.4998705669169,0.0
-0.7596104765647226,1.4041735002114724,-1.0144719767272858,-0.1872736583565047,0.7274795990965901,0.3345905848833811,0.6867385466629606,0.5758682122166902,0.368490744118073,0.3863069568597801,-0.0223478984872137,-0.0816442646078103,-0.0889651637498711,-0.5940031431499806,-0.9913959928821482,0.8313155814467831,0.1949904277016736,0.6988286812820713,0.8177141881751949,1.165373168388108,-0.0127459153243151,-0.7968424405275187,-0.6081645733710039,-0.1252022954395467,-1.0115343467380704,-1.0,0.0712470499879101,0.4035274426383927,-1.005760024714203,0.327323165553436,-0.1065503124938461,76.16528925619835,0.0
0.5907561191932498,0.9645915714013108,0.6393434522559264,1.2975680331627553,1.0205017336716962,-0.4091677165376152,-0.7509251283969507,-0.7840397176131927,-0.5799433308449098,-0.5818514973981942,0.6867061973003075,-0.0610201145052532,-0.0725511172731576,-0.8302663188992885,-0.5864524001216215,-0.391659070314331,-0.4995893318048255,-0.6871732752904649,-0.6704423083761112,3.355157324919636,-1.528059555935234,-0.5712484355403523,-0.834987077192079,-0.2823587300251466,-0.5584035760273511,1.0,0.0712470499879101,-0.5827870487682109,-0.559328193087658,0.7183710873168139,-0.1402061496834231,89.83623602807383,2.0
-0.1749745677736291,-0.7064426882057875,0.0034660569224655,-0.5310299209144638,-0.6691218636200382,1.3750793258807976,-0.3157376426213866,-0.0037427374498525,0.7847524733068181,0.803652721029304,-0.2986938693965951,-0.0949947707070643,-0.0908562411211568,0.6128170802890303,0.2234347853994319,-0.2123174374190002,-0.3446716590437847,-0.4463060393124144,-0.5395363917624671,-0.169642947318915,0.4770906642889594,0.8528020171177235,0.637542646049272,-0.1539832225001113,0.3478579653940876,1.0,0.0712470499879101,0.8211191358639424,0.3335354701654303,-0.1419583004949393,-0.1237810588832429,72.94986807387863,2.0
0.1226993718987765,0.2308463788734879,0.0127967697523376,-0.0410580272802414,-0.0636193572649309,0.28084765399127154,0.063464109142804,-0.6052466270680789,-0.05575935651959329,-0.03751319667702244,0.0868935341401825,-0.08717067321772,-0.08747759482102195,-0.8056913296803574,-1.001929029087436,0.3902132298314547,-0.2147758442213936,-0.3023876369178055,-0.4551990171962123,-0.9960842933173886,1.1055004755927504,1.4249666062129067,-0.8074623676911044,-0.29520982725816364,-1.0115343467380704,1.0028585889926975,0.0712470499879101,0.0941351844059302,-1.0151426941174162,0.1696542309610786,-0.1222465670181263,92.31251633133004,2.0
-0.553418362138329,0.3954285837556823,-0.7670300196969366,-0.145782581913268,0.544788372006185,-0.030397862057374866,-0.4327503727730407,-0.23802997282855037,-0.2186762092419752,-0.20844601564914556,-0.2395762428711182,-0.0861792232878909,-0.0676547256666884,0.1218536012528867,2.2493517393090148,-0.3631923085778692,-0.4958501850928094,-0.7168290401933296,-0.7422196157597587,0.3294807318142071,0.0980177693738223,-0.23976019154774036,0.1438043496435604,-0.25653059170375975,-0.5584035760273511,1.0047870252442312,0.0712470499879101,-0.490082774031703,-0.56263289366527,0.2007215655508486,-0.1391521951848451,105.58754863813228,2.0
0.3773446889550222,0.2412667529203978,0.3258742372615202,0.331849757817706,0.1069780348960427,0.9932336425309606,1.2185148956286902,1.5008345549164692,1.0920826826965626,1.1111041612192625,0.031894116423414,-0.014599577988053,-0.04719178429436166,0.3014749569272824,-0.41521978149573235,-0.0960520720342787,1.1035284825360985,0.5391827494872685,0.3672097175258001,1.3335659659702497,0.8245966449591272,1.1618876705654013,0.2681717336442327,0.7226262034176105,-1.0115343467380704,1.0034329210334125,0.0712470499879101,1.0033654185400005,-0.42160472605319316,1.187629420977252,-0.1186180447324806,126.74071723262456,2.0
0.2281461077624838,-0.0541449739602285,0.309812590367351,0.1948483787827329,-0.0495661859502843,0.14648153809233022,-0.5328749306316358,-0.39289716084026266,-0.1559412138187177,-0.16544958398210918,-0.141621203498878,-0.0639026883882861,-0.05226339736054712,0.1515747532325599,2.2389076802168857,-0.3479206090129261,-0.4696560511766007,-0.5794603459684273,-0.6259065563860247,-0.8078075775999725,0.364795895836282,0.018672131521813313,0.1740018103220185,-0.3078287957625666,-0.5584035760273511,0.9821622448422005,0.0712470499879101,-0.0900918592728905,-0.570341590852237,0.6753295318231597,-0.139296568642586,104.84641638225256,2.0
0.0532285294143055,-0.4543970248934647,0.20282991349355,-0.2705521760747155,-0.5316305000368376,-0.1586191399869703,2.8743137290799257,1.956937687226611,1.1296013845335724,1.1156628730822076,-0.3238693099463426,-0.1070103989111994,-0.06443617350344702,-0.5418961678815675,1.8523986367717196,-0.3771533561906844,4.30734472098681,1.9213184255680649,0.8916630472829844,-1.068024650324762,0.4001244161026113,1.927866290625061,-0.5390886555707812,0.8533374374193364,2.1603810482369648,-0.12090506263630774,0.0712470499879101,0.9337965362572732,2.133844708141929,-1.5837438764357863,3.527899266010198,95.64456411982498,0.0
0.596468835817602,-0.4180812159050158,0.7734279324256537,0.164834704004963,-0.5269686307064981,0.44108851626643486,-0.6872925840267864,-0.4565012018319064,0.05646546802624155,0.041166678173813406,-0.2081732549200702,-0.0650690827654484,-0.08252962293493021,0.6559095171749931,-0.9643882183548389,-0.4312575972647415,-0.4713658343906732,-0.7461874044738311,-0.7369176437751593,0.3729564276915686,1.0227129965185855,-0.4052799897108555,0.6014433677538115,-0.25458258793046346,-1.0115343467380704,0.9972180925212145,0.0712470499879101,0.2333508776882816,-0.9935194605925565,0.6571209032663472,-0.1393026580435269,89.18709677419355,2.0
-0.0459576413046892,0.2450557816050034,-0.0342129284744989,0.1797607146215559,0.2578469365576087,-1.3649587611538507,0.5922620785159568,-0.8013489365076241,-0.8869190347661364,-0.9005831522322678,0.0032114987402252,-0.0944504241958237,-0.0887999938544328,-0.8621476999132237,2.653096341962592,-0.0900176426244491,0.172059061508131,-0.1933833593528741,1.7267481685933823,2.6762998356219367,-0.1484837896696703,-2.736514767887018,-0.8635797651447213,-0.2078091645994385,-0.3318381906719914,-1.0,0.0712470499879101,-0.9130352205375772,-0.336112277274386,-0.1150877476159669,-0.0777206162773054,67.84099766173031,0.0
0.5633706530401551,-0.249519886982285,0.4079275287119987,0.2173182214799143,-0.1144607582950824,1.0957795956286114,0.7675220195897443,1.5471237367309598,1.1177040094103816,1.1247277886252032,-0.0778876197046493,-0.0440078473732435,-0.06133003178909822,0.2566506588797106,2.846677944410579,-0.2828003618036454,0.4830222780682134,0.4660044701601646,0.2753105358720681,1.6114373896350291,0.4458045100402276,1.2027610473559958,0.285897457948831,0.3090191316812038,-0.1052728053166317,1.0118218061474213,0.0712470499879101,1.0087311491948088,-0.23706726924406,0.9289771989412362,-0.1208266390014419,114.02969523313362,2.0
0.0998805225811518,0.802260715499168,-0.0748122133067669,1.4621582838067375,1.904297570050982,-0.1686011433548329,3.064771956623074,2.2722357943974116,1.468302407457126,1.4285842009138352,0.5504703472018032,-0.0075772492957542,-0.056271817011714735,-0.4348779466714609,-0.9838754472011949,1.7541575297013663,3.9260354564257063,3.05386927532962,2.817045881690216,1.094191469830125,-1.1843115517173362,1.5650652898321844,-0.4467129435654877,0.5069406610784111,-1.0115343467380704,-0.9980883142297552,0.0712470499879101,2.3598324293470623,-0.9892326824185769,1.2373096971823814,-0.0841918186384184,100.15538290788014,0.0
-2.444345230070755,-0.3005024743450986,-2.1857257307304705,-1.8587982516128991,-0.2573571877685316,-1.221259248609196,-0.6783589763142239,-0.7701711820067421,-1.1296664621895312,-1.1556528468552596,-0.3212433026151354,-0.1086204487600497,-0.0939691613208025,-1.103548988283207,-0.9987169981486652,-0.5229029405863701,-0.5227557283020624,-0.630526137481281,-0.6438806739377102,-0.9096589680980534,-2.3426421213040163,-0.625542052035239,-1.1126796748663288,-0.2855031469999566,-1.0115343467380704,-0.9872566167078417,0.0712470499879101,-1.015078624131532,-0.9854912211566133,-3.621712593147186,-0.0732041276540447,89.74292391586602,0.0
0.2442006885872704,-0.3228197410174849,0.0839167450243019,-0.0428631585280965,-0.1333447072491387,1.2532534045784534,2.7130849371505525,2.918120656078643,2.544795099348949,2.521116712157853,-0.1966356459146679,-0.0430953584090762,-0.0662741830919527,1.1630348734953735,1.8432091564415387,0.0896183764603755,3.4609943738042257,2.404762451527755,1.4093539889151383,1.943220170942421,-0.0316948509976641,2.1283992613321145,1.1910053177405482,3.4962731726107417,2.1603810482369648,1.0,0.0712470499879101,2.493996120928771,2.1192627966716073,0.9386449953088966,-0.0625994015368157,102.79158699808796,2.0
-0.7997613705716793,-0.9329659615378576,-0.4508897991214601,-1.0905936654921151,-0.9397467564124264,-1.788073872770877,-0.9061659550375633,-0.998920315389304,-1.5638093759159395,-1.6131857683629514,-0.3365415569077953,-0.1072000670714847,-0.0923579050712233,0.3920793922764209,0.6283783781599586,-0.5257092873172587,-0.5170931458173834,-0.5181118747496402,-0.6382726900438365,-0.267228900836171,0.684264566355371,1.5793203312164317,0.4183498555692828,-0.279242035186496,0.8009887361048069,-1.0,0.0712470499879101,-1.6616680082925317,0.7799673017919746,-1.6654720091353543,-0.1321390509224883,73.29798515376459,0.0
0.4633351446936228,-0.4832651310631246,0.5260572022107997,0.0530782201825306,-0.4324475409507745,1.061243860248602,1.316657940563443,1.5908367843520437,1.2425690475212843,1.2233450715798808,-0.2300812876843562,-0.0543760243889828,-0.06742846540033996,1.3099230832439372,1.845100824644399,-0.3561804499205002,1.2543425765944178,1.2663643850946515,0.8353917483469342,0.9402552435604916,0.5751354237130212,1.705168616496428,1.32093658755754,1.3285290834150139,2.1603810482369648,0.9939625549764962,0.0712470499879101,1.199537783037698,2.1245900007410268,0.8084127599793379,-0.0986848562913329,98.06639912440716,2.0
0.4344438716792024,-0.4021300343156218,0.504831611193228,0.0749283909588066,-0.3849167427784003,-1.1777463491319775,0.4957911046587806,0.0434351805868908,-0.7977736139156383,-0.8077444517108062,-0.0950167092919903,-0.0717863349383934,-0.0878444354899775,-0.2204199804922647,-0.9913959928821482,-0.1263141556236577,0.319516522871891,0.2747943319855526,0.6006836975658868,-0.2617105811935281,0.4999089140330708,-1.0569610344244509,-0.2381931926946673,0.0332285380191297,-1.0115343467380704,-1.0,0.0712470499879101,-0.8165528373971798,-1.005760024714203,0.5417347940735282,-0.1113892381372807,71.81298701298701,0.0
-0.2505253700571135,-0.6149089037639127,-0.0385933776274542,-0.5637108791778703,-0.670202876798088,0.5727951082757299,-0.5225546564205366,-0.4227779886524995,0.1576606011757279,0.1731995498812658,-0.2554427763351191,-0.0958570870839385,-0.0895804632759112,-0.2283178530879316,1.0333219709204853,-0.4514705424579184,-0.418936087136084,-0.4904810534692195,-0.5177243342661385,0.0669762990767926,0.8959819757990878,0.0247574595643166,-0.2196646330108367,-0.2452792920669088,1.2541195068155262,1.0,0.0712470499879101,0.1885560896833047,1.2263991334185185,-0.1867887198604244,-0.1300774350322471,82.08550573514077,2.0
0.5189631398074026,-0.4460756553722267,0.5996701160250961,0.1197603073234467,-0.4186646229306404,1.2278629322722954,1.357318404466365,1.5657103304963074,1.2995969201507218,1.3236809024240774,-0.2075769843776609,-0.0856978461719139,-0.06387122872262962,-0.1084680445846874,2.6386189921938166,0.196272158600069,1.1180042061308315,0.4929228820182129,0.0581054545086691,1.3820130876848369,0.7001380168506218,1.9729308981328435,-0.1058667067065522,0.5053656966355937,-0.3318381906719914,1.0002163408604252,0.0712470499879101,1.5965554431565605,-0.34186331460700936,0.2153158935608444,-0.0487819311189301,111.56420233463037,2.0
-1.68427077047458,-0.0158809039652719,-1.8086153560910967,-1.5168201780453647,-0.1862805713117616,-1.1938266189552116,0.396084291707268,0.2875452850060435,-0.8502681377733153,-0.8623859278024885,-0.1904491209446379,-0.0990532396334977,-0.0915516835085365,-0.7217642488244979,-0.9913959928821482,0.5371716553801877,0.0360345910617204,0.7122618691307474,0.5038265137374076,-0.9163404623455144,0.6288545358897727,0.2128546609577399,-0.7234357436272093,-0.1902925326003943,-1.0115343467380704,-1.0,0.0712470499879101,-0.8733099264136079,-1.005760024714203,-0.3841776782871728,-0.0657358535824679,74.91695228051674,0.0
0.3773446889550222,0.2412667529203978,0.3258742372615202,0.331849757817706,0.1069780348960427,0.9795954035329775,1.2185148956286902,1.519722736325514,1.059073796413407,1.1052099782718439,0.031894116423414,-0.014599577988053,-0.04742815500302756,0.3014749569272824,-0.47914909859149657,-0.0960520720342787,1.1035284825360985,0.5391827494872685,0.3672097175258001,1.3335659659702497,0.8245966449591272,1.1510967299093307,0.2681717336442327,0.7124167454170882,-1.0115343467380704,0.9941203133149987,0.0712470499879101,1.0033654185400005,-0.46756806225756814,1.187629420977252,-0.1186180447324806,126.74071723262456,2.0
0.9398929484249928,-0.6493617614832238,1.1393913104400275,0.3374268051058554,-0.6577036619268879,1.2525044575051552,0.2476641868442413,0.5447014803989074,0.8558849858821823,0.8745253960757783,-0.2907250796261574,-0.0958179764745723,-0.0899309562391076,0.3042137763185646,-0.1815088073610948,0.2605780327516878,-0.0686068223127587,0.2452651436550844,-0.0348080363131531,-0.1191735801639932,0.5346895888935774,0.6713420220112998,0.3238223208494405,-0.0134821428082701,-0.1052728053166317,1.0,0.0712470499879101,0.8915912282111393,-0.1128963614611138,-0.1846911389369757,-0.0950781970226267,71.79433913269281,2.0
0.2442006885872704,-0.3228197410174849,0.0839167450243019,-0.0428631585280965,-0.1333447072491387,0.9991342146068755,2.7130849371505525,2.0092413413825256,1.6523093082558784,1.6710510218343373,-0.1966356459146679,-0.0430953584090762,-0.08524028803082653,1.1630348734953735,1.1857618932108078,0.0896183764603755,3.4609943738042257,2.404762451527755,1.4093539889151383,1.943220170942421,-0.0316948509976641,2.1423837349299646,1.1910053177405482,1.3944401470700978,2.1603810482369648,1.0149871803556454,0.0712470499879101,2.493996120928771,1.3786542124716268,0.9386449953088966,-0.0625994015368157,102.79158699808796,2.0
-1.313041501949936,1.7086124475266742,-1.807048366150202,-0.6106173493646724,0.9484792306841326,1.4614661425655575,1.7262818019035728,1.7797002891195572,1.8312338193894444,1.833682452410467,0.2302323183909647,-0.0558492777345112,-0.0620759498441695,-0.550055399022395,-0.9913959928821482,3.754424058501586,1.4312291316456085,2.018037689034895,1.8513447946328172,0.0891636781052647,-0.0273193288999404,0.764754651229858,-0.5498809261309162,0.1852121802092319,-1.0115343467380704,-1.0,0.0712470499879101,1.8330022892434543,-1.005760024714203,0.7894358352229107,-0.0931929275301979,84.67692307692307,0.0
-0.1652336109350848,-0.320719615774117,-0.1299061550923096,-0.3674904183102776,-0.3375548529150963,1.112605659164365,1.2656128919174885,1.6208783264300173,1.2080732548832953,1.2434093129991932,-0.2243826876794742,-0.091109387724009,-0.07126152487128964,-0.2266439371013852,2.640152064888373,-0.2063791933413168,1.1210123569918462,0.9140643549330992,0.689405600518659,1.712964218771064,0.8164325108760331,1.4826652683599064,-0.209881652717731,0.38338909154199075,-0.3318381906719914,0.9958408474980137,0.0712470499879101,1.2621837399360734,-0.3381255264035517,0.0302381090309125,-0.0202193498025825,111.15449343655337,2.0
-2.031870685039558,0.206413284483681,-2.047795002524002,-1.6068342601212438,-0.0722674626893287,0.8536881177817729,-0.3051817220569568,1.1100297637741061,0.8761643257565283,0.878125092329803,-0.0612016158430912,-0.1025207559698834,-0.05963602654797424,-0.9860835588444554,-0.0556240008945605,-0.2909065172711714,-0.3838295179536956,0.0058514775053875,0.0108170943394392,-0.5041314330408455,0.557361452350656,1.1453034029114482,-0.9918832854899486,0.6535399537721426,-1.0115343467380704,0.5620961038505954,0.0712470499879101,-1.237613977646817,0.03966043062896501,-0.6913015865490387,-0.1110478262237673,106.9417225373904,0.0
0.3531544130933701,1.1084249816416034,0.3224553501177503,1.7434893358978272,1.8802112451775612,-1.1557962631189866,-0.2132182680129657,-0.33642769450807686,-1.0181856850103705,-1.062895324136865,2.012314598331642,0.2055642809516869,-0.08225233214108708,-0.3108919683530142,-0.8403925554941984,-0.1892357591880873,-0.3634462795901336,-0.3376380371207574,-0.4767154253022759,-0.7560065576586448,-1.9774746518326256,0.6145030114280917,-0.308581468234701,-0.2874642745478994,0.3478579653940876,-0.7499754132665014,0.0712470499879101,0.0089182427267728,-0.8380625330571274,2.020033450778388,-0.1402857987322309,116.93311582381727,2.0
2.4821502344667805,1.5237725448241013,2.1047283408465685,2.4747291448237276,1.106476062988464,1.6520414770348217,1.8433877697842531,2.12489625279876,2.0376960006067595,2.040678477460031,0.0493754661582262,-0.0667616708365802,-0.04591307897068642,-0.4675761407964361,-0.9870783384338895,0.0236891338606869,1.6146793468728553,1.216769639329314,0.7882456150361259,0.0398241941174731,0.0513627063494079,1.4887546252931347,-0.4631381921256037,0.26743775436802747,-1.0115343467380704,1.0057612146885033,0.0712470499879101,2.1557730323550057,-1.007805704331912,0.6298132265008586,-0.0751293947720276,95.48845470692716,2.0
-0.1652336109350848,-0.320719615774117,-0.1299061550923096,-0.3674904183102776,-0.3375548529150963,1.1561430267338635,1.2656128919174885,1.7136078502612493,1.2961922425938621,1.2749855986842171,-0.2243826876794742,-0.091109387724009,-0.07525306831260888,-0.2266439371013852,2.1821501879144956,-0.2063791933413168,1.1210123569918462,0.9140643549330992,0.689405600518659,1.712964218771064,0.8164325108760331,1.1132716680007606,-0.209881652717731,0.4770538306065901,-0.3318381906719914,1.00998947722212,0.0712470499879101,1.2621837399360734,-0.2112457525998119,0.0302381090309125,-0.0202193498025825,111.15449343655337,2.0
0.2442006885872704,-0.3228197410174849,0.0839167450243019,-0.0428631585280965,-0.1333447072491387,1.0643774102500536,2.7130849371505525,2.0786174207500707,1.6749156390272721,1.6575964759260737,-0.1966356459146679,-0.0430953584090762,-0.07641504911489669,1.1630348734953735,1.8080527735584337,0.0896183764603755,3.4609943738042257,2.404762451527755,1.4093539889151383,1.943220170942421,-0.0316948509976641,1.9141443798834767,1.1910053177405482,2.256253618644543,2.1603810482369648,1.000954527303754,0.0712470499879101,2.493996120928771,2.129819527276109,0.9386449953088966,-0.0625994015368157,102.79158699808796,2.0
-0.1108351259458245,-0.3254637824088931,-0.0737081976665912,-0.3741990404105152,-0.3992739490493733,0.9946542659906128,-0.3345767817723429,-0.2241260961722039,0.5005265540727019,0.5191728130076516,-0.1731659849403924,-0.0956047522707899,-0.0901496165541109,-0.6369634022176771,1.0333219709204853,-0.403748730310585,-0.4130994496563872,-0.4935785546954974,-0.4771839157027372,-0.4226663480739026,0.9263783505460754,-0.4664314635831377,-0.632198416361159,-0.2624288366234225,1.2541195068155262,1.0,0.0712470499879101,0.5369577419587357,1.2263991334185185,-0.1733662530230042,-0.1297127999556343,82.06411258795934,2.0
0.240429369133814,0.5526834731482095,-5.967044454720324e-05,0.3192138390827203,0.4003042044274753,-0.9487245898229222,0.0326350204257431,-0.0331048939472311,-0.8054515518730335,-0.815731430291792,0.1159112054677407,-0.092140869782288,-0.0899616401557789,-0.8946849199913001,-0.5864524001216215,-0.3207913060503129,-0.1497404961057995,0.351079696657679,0.3876215449600659,-0.4935156100595255,0.2887548681311728,-0.1897545352587863,-0.8988648767928427,-0.2487832133055597,-0.5584035760273511,-1.0,0.0712470499879101,-0.8248438999560581,-0.559328193087658,-0.0114546545523094,-0.1115732815536269,72.09387222946545,0.0
-0.4293834565047939,-0.8188058768993846,-0.14981405002322,-0.7298368384954012,-0.7730004736982549,0.0127681031465104,-1.0009922021786328,-0.8537952254039465,-0.2937134902061227,-0.2870693415376584,-0.3233237597712003,-0.0999187638471937,-0.0909963696735047,1.2412004450460048,1.0333219709204853,-0.5256929769391755,-0.5243252052637893,-0.8209231981132488,-0.8315847791189548,-0.762593452396802,0.3548489092578967,0.5878852910997823,1.3013951105724892,-0.2826517835782777,1.2541195068155262,1.0,0.0712470499879101,-0.2798249241604837,1.2263991334185185,-0.4490076362813556,-0.1405048996523366,78.44944997380827,2.0
0.3531544130933701,1.1084249816416034,0.3224553501177503,1.7434893358978272,1.8802112451775612,-1.0502153281107127,-0.2132182680129657,-0.32444058994176617,-0.939198549063124,-0.9749592155503228,2.012314598331642,0.2055642809516869,-0.07689010812729129,-0.3108919683530142,-0.7405399500541424,-0.1892357591880873,-0.3634462795901336,-0.3376380371207574,-0.4767154253022759,-0.7560065576586448,-1.9774746518326256,0.6117687163686224,-0.308581468234701,-0.25724485827763566,0.3478579653940876,-0.6207304775684118,0.0712470499879101,0.0089182427267728,-0.7474259851640922,2.020033450778388,-0.1402857987322309,116.93311582381727,2.0
-0.2355243219162057,-0.7082337632726863,8.278318644321084e-05,-0.5716857873773497,-0.7168891334251108,0.4438074925104987,-0.5969305272811961,-0.3476405554271689,0.0527898222039406,0.0667549062545735,-0.2994411815064394,-0.1011154395373395,-0.0917074043069258,-0.0660248395135092,1.8432091564415387,-0.344415084097886,-0.486085411262722,-0.7224040056573136,-0.7454357594713241,1.4601309139352758,0.8201783819170525,-0.2779609701602896,-0.0408227395464933,-0.2675706202893148,2.1603810482369648,1.0,0.0712470499879101,0.0807347090340083,2.1192627966716073,-0.5500293181966223,-0.1339419269425276,97.77084957131724,2.0
0.3531544130933701,1.1084249816416034,0.3224553501177503,1.7434893358978272,1.8802112451775612,-0.8222240582906946,-0.2132182680129657,-0.16474386779403394,-0.7369722937297895,-0.7739098348826495,2.012314598331642,0.2055642809516869,-0.07087767850717344,-0.3108919683530142,-0.6310753173385244,-0.1892357591880873,-0.3634462795901336,-0.3376380371207574,-0.4767154253022759,-0.7560065576586448,-1.9774746518326256,0.36412520763016387,-0.308581468234701,-0.26426532387707213,0.3478579653940876,-0.5309975410732748,0.0712470499879101,0.0089182427267728,-0.6028018564503174,2.020033450778388,-0.1402857987322309,116.93311582381727,2.0
0.0998805225811518,0.802260715499168,-0.0748122133067669,1.4621582838067375,1.904297570050982,1.2973348470247676,3.064771956623074,2.3388428096434426,2.272307921737564,2.2223817947018842,0.5504703472018032,-0.0075772492957542,-0.0020251504322422106,-0.4348779466714609,-1.0068061529637944,1.7541575297013663,3.9260354564257063,3.05386927532962,2.817045881690216,1.094191469830125,-1.1843115517173362,1.238794982697155,-0.4467129435654877,0.6211602388645335,-1.0115343467380704,0.1959925226285404,0.0712470499879101,2.3598324293470623,-1.0040840006732166,1.2373096971823814,-0.0841918186384184,100.15538290788014,0.0
-0.1222999143949895,-0.1759095623509425,-0.1155183383622778,-0.3135250766766392,-0.2835379756744237,1.1167499247638082,1.6610839933601602,1.6139417908200722,1.3422255179043703,1.375525978875499,-0.2033382871439887,-0.0903164821677178,-0.07849833161084371,-0.3168211202813283,2.3284105627823135,0.0703854135609586,1.4275544926426933,1.117150245583801,0.5942519081178156,0.7316192186753124,1.0096784734778244,1.5660624225498532,-0.3085637644326609,0.36809946671454125,-0.5584035760273511,0.9891788614305906,0.0712470499879101,1.6416962282918035,-0.5131653662246297,0.0606587043330915,-0.0039396878709092,103.342776203966,2.0
0.4844922609633299,-0.4601323844369019,0.5939363573777319,0.0558802149553206,-0.4933220955397002,1.0941260179788528,1.8928557419197551,2.126214605291626,1.688613287245187,1.6948663162127726,-0.2488505650410954,-0.0808421119246019,-0.0870838517933741,0.5325484910984589,0.6283783781599586,-0.116719602161266,2.000973603507464,0.968391642726023,0.3792622479853322,1.472062839027278,0.7913465027424389,2.0939822485628956,0.5370245241196142,1.453181297396638,0.8009887361048069,1.0,0.0712470499879101,1.6981539342156955,0.7799673017919746,0.3474859459676045,-0.0239983698483844,84.75382003395586,2.0
0.3531544130933701,1.1084249816416034,0.3224553501177503,1.7434893358978272,1.8802112451775612,-0.0890557456633353,-0.2132182680129657,0.18057843673472324,-0.22109509268935515,-0.17303301750883202,2.012314598331642,0.2055642809516869,-0.05532298720440109,-0.3108919683530142,1.7251507793946967,-0.1892357591880873,-0.3634462795901336,-0.3376380371207574,-0.4767154253022759,-0.7560065576586448,-1.9774746518326256,0.6781450384595389,-0.308581468234701,-0.2467299247144044,0.3478579653940876,0.9884730511174272,0.0712470499879101,0.0089182427267728,-0.07744442320150992,2.020033450778388,-0.1402857987322309,116.93311582381727,2.0
-1.5454931510427736,1.3743664530533282,-1.659395177628638,-0.6903125468446036,0.7084943051570917,-1.036488414047818,1.810666349534524,1.717809800614971,0.3534423442378551,0.38312647824540486,-0.1817831868788481,-0.0883097226406007,-0.09370088731322512,-0.3441552024357022,-0.48494606113399885,-0.2386463598029632,1.8787719698794532,1.144186628218401,0.6423698630066749,1.017586191542071,-0.7949135382307438,1.8458475391255926,-0.3398102530417546,1.1581942370523257,-0.1052728053166317,-1.005195526459252,0.0712470499879101,0.6065120201826829,-0.46203475620838724,0.1321457145986588,0.0110949149552852,99.35018050541515,0.0
0.2694177561249389,-0.0259447096669485,0.2837791893038529,0.0100514350657455,-0.2565802095468084,-0.3367651619949352,-0.4480699302563771,-0.5861176063911426,-0.4781047152773659,-0.4728937763297821,-0.2368065796567791,-0.0957094682639684,-0.06714801372446175,-0.3765354452547354,0.10187289850393749,-0.4769160336322334,-0.4775443415662949,-0.7267889801187942,-0.7341192420400354,2.192252716028677,0.4169718291450032,-0.5955358423307155,-0.3721419424977107,-0.2764792050577512,-1.0115343467380704,1.0151961218611738,0.0712470499879101,-0.7152125890575481,-0.8694603163103308,-0.1789047755404069,-0.1360127873349709,100.49725202826484,2.0
0.4744957699348267,0.1368393758894502,0.5709657093805276,0.5215501923870759,0.1123493191244773,0.7753225967804062,-0.202870935103499,-0.2372494056764469,0.3695342400343123,0.3873588027361,0.2664356841888587,-0.0449237822660537,-0.0818482540231305,-0.4745200407709923,-0.9913959928821482,0.1632487764480543,-0.3142385973556624,-0.6030012647998815,-0.6136522444297157,0.8266707128271281,0.2085111319991815,-0.5908824919754002,-0.4822944246348692,-0.2278857033628296,-1.0115343467380704,1.0,0.0712470499879101,0.4045855530212456,-1.005760024714203,0.919134790537065,-0.1366500674776582,76.84391080617496,2.0
-1.8155088302670477,-0.2569889162536031,-1.7046242054680945,-1.4526706631029318,-0.2044888870295368,-0.10265881242868342,3.169425133145203,2.296405548806072,1.2360248681341377,1.2204330565679224,-0.1960317579359518,-0.0748976576188515,-0.08936733734131777,0.2114891213118741,-0.9848581326853638,3.540705553626464,4.491162765707808,1.829597880883348,1.037852174306623,0.8873483608656048,-0.1189175409565385,1.549684083443245,0.2058696234773828,1.1774206469392716,-1.0115343467380704,-0.9997881910667998,0.0712470499879101,2.734864616499285,-1.0118962961432865,0.480965714850444,0.0503792848602995,119.75051975051976,0.0
-2.773457051062002,-0.7061869287317242,-2.49944423957911,-2.491698820916843,-0.7533395465224753,0.3621220444846803,2.1057476813733507,2.326326284824847,1.4716723319874252,1.4731166230014554,-0.3255222170863067,-0.1064855621706422,-0.09310018036047052,-0.3064300558952322,-0.5240231748091797,-0.2834322962567994,2.716091736066129,0.919950477918378,0.3154315914675305,0.3485696158573704,-0.3281253739833225,1.669801336958775,-0.2990498916448177,0.7520220423351344,-0.1052728053166317,-1.0143820038079372,0.0712470499879101,0.9669958812514576,-0.487042565652271,-1.397888773946344,1.7394230481442254,88.93463715903242,0.0
-0.076838625378286,-0.7245035112366226,0.1839548073873202,-0.4579625187624782,-0.7487114588539499,0.1010173960854091,-0.9840478872133928,-0.831217950368426,-0.2294997291621212,-0.2212505287340049,-0.2890329980899854,-0.1037699798143164,-0.0919752310694319,-0.5441271838712968,1.438265563681012,-0.5243781571796076,-0.5235986798234943,-0.8184246059957982,-0.7964712350960418,-0.4116703063137819,0.8495394436609682,-0.1761021641296886,-0.534222413308813,-0.2848815286182729,1.7072502775262457,1.0,0.0712470499879101,-0.2125001396955817,1.6728309650450623,-0.846955751108084,-0.1399616896629831,89.48731227343346,2.0
0.1267501483899662,-0.2072235353516234,-0.2170165504429478,-0.1860343145146938,-0.0274054158002648,0.5222462718608768,0.3582667766975925,-0.15589675705565798,0.15151879735933005,0.16687980636272748,-0.0436917773132517,-0.0685779406649452,-0.0906152218801456,-0.3042218586978048,1.8256754072783066,1.4369548982220783,-0.0534135634975091,-0.2422001246911669,-0.3321924315101666,1.1825392299595512,-0.0378038241468668,-0.049880234846703383,-0.297082639176219,-0.26040454362550974,2.1603810482369648,0.9914965248272551,0.0712470499879101,0.6064233935189299,2.1286085965255044,0.5992563977216285,-0.1257324558596536,95.07565337001375,2.0
-0.2224890439792892,-0.7652790483992425,0.0721643204675927,-0.5798492913788436,-0.7954990604664149,-0.2551575173101293,-1.0315559270007149,-0.90971046529179,-0.4870748171547683,-0.4859561440686153,-0.3013851787041237,-0.0967461237045131,-0.0902273911274162,0.50812828501805,1.0333219709204853,-0.5273571441793936,-0.525889113631827,-0.8325228945689211,-0.8384654130826809,-0.0482948116721977,0.9075338300358712,1.4124366147012988,0.5527746135578235,-0.2846996170545245,1.2541195068155262,1.0,0.0712470499879101,-0.4839719732664962,1.2263991334185185,-0.2362740704263433,-0.1407936851599538,84.41769170374248,2.0
-0.1684445397052312,-0.7493324941643165,0.1186398175782153,-0.5089911543361731,-0.7507383585627931,0.0183291589178415,-0.7233500022849721,-0.6459236934514001,-0.2704536703110173,-0.2632149679845715,-0.3280928649123689,-0.1003346382554708,-0.0899566887664412,1.688770719849774,1.0333219709204853,-0.3413267217111315,-0.4999884759791771,-0.7042885002160433,-0.7158085769050389,-1.034298237910294,0.3210425057225091,0.3076925343494852,1.755592264447805,-0.2536854892428203,1.2541195068155262,1.0,0.0712470499879101,-0.2554113090505906,1.2263991334185185,-0.4824650668087962,-0.136736215123199,82.92030848329048,2.0
0.1310644903771775,-0.2991854596199837,0.3111658998617599,0.4738623967347843,0.2989930006471267,1.4702896676358133,1.171264781683924,1.6900285423812127,1.5673897738555405,1.5700202717756848,-0.0652597404997195,-0.0172270232208771,-0.07595425988907567,0.6640365701234141,2.269757622994895,0.4494753807685659,1.1520070763960542,0.7128617905198945,0.4965441889016391,-1.2577228447337454,-1.3479860053234942,1.9184264492511536,0.6663247522042465,0.4808749338551205,0.3478579653940876,0.9889642567453685,0.0712470499879101,1.483549737698988,-0.22964134576549325,1.1680819003570226,-0.117293290109499,111.53526970954356,2.0
0.822892044319169,-0.8278543059325059,1.1673478355218962,0.2103671190628006,-0.843536583566,0.08388429839776786,-1.0290907745645477,-0.8628978535307459,-0.23935090692685193,-0.22358120287490876,-0.3184937895001026,-0.103703604335363,-0.08866945164283577,0.1097896168974625,1.4216406306509435,-0.5272132607218333,-0.525764995551564,-0.8424718225348096,-0.8409486179841997,0.0444991176840214,0.8261851895036733,1.4817070040521272,0.1417458003981925,-0.29095861083909597,1.7072502775262457,0.9970045992280401,0.0712470499879101,-0.2313507970798575,1.681048989380672,-0.8377404906602595,-0.1405328040668982,87.0197628458498,2.0
-0.8950961338692212,0.8560204681739356,-0.8874389512915841,-0.2681812574208163,0.505534080978254,-1.255223470575734,0.429874169488309,-0.5542238362114139,-0.8797630449848116,-0.8931221798738079,0.6007993103257067,-0.090053947117309,-0.0915890493310456,-1.0007821605615224,-0.5864524001216215,0.1085216479875784,0.4133776883460527,0.0583119030277522,0.0463435772331422,1.132137961521958,-0.7137027291663194,-1.1100850426220557,-1.007088406962101,-0.2347863449547634,-0.5584035760273511,-1.0,0.0712470499879101,-0.9052725909753708,-0.559328193087658,0.0704427499982277,-0.0759485366646637,65.25231719876416,0.0
-0.3264326020639256,-0.8680560667281015,0.0363372322735035,-0.6965900928259505,-0.9078906493217732,-1.737378983306962,-0.8718639681402529,-0.9279009753087936,-1.5264190540088352,-1.5734617340718795,-0.3370880221461319,-0.1049053385122715,-0.092370204274779,2.208923729032022,0.2234347853994319,-0.508734389913416,-0.5106296469958881,-0.7256992136865122,-0.7684600511461007,0.2601221826080568,0.7898936705201005,1.3047757306369134,2.299385787241989,-0.2624429540622802,0.3478579653940876,-1.0,0.0712470499879101,-1.6195548121451084,0.3335354701654303,-1.027265163762594,-0.1352690534626989,70.36905064902011,0.0
-0.1480813432504696,0.4247541698402421,-0.1637032790447853,-0.0197736439100096,0.1304900715186244,-1.5461571783259136,0.8051378676128218,-0.4964373633073027,-0.9116433889063232,-0.9263727092110872,-0.1358636553740053,-0.1002182677534822,-0.0880982159511146,-0.8632348519007539,-0.1815088073610948,-0.3091378558236522,0.6231530962539141,0.0488111676257403,2.107466440851469,1.3757929940844764,0.7390807816457103,-2.450360194745053,-0.8665100457104179,-0.1580091894127616,-0.1052728053166317,-1.0,0.0712470499879101,-0.939879400138321,-0.1128963614611138,-0.4729384234937353,0.033722203557204,71.25773195876289,0.0
0.5288763555558618,-0.7036787078446323,0.8267055904160685,0.057335096856577,-0.7122948274183994,1.2791728785118506,1.14019353640809,1.418051769919714,1.2482370689878775,1.2907146490807992,-0.2855310807545037,-0.097942817761705,-0.08729254836044484,-0.0013990390128139,1.8651146799943432,-0.4244031981435717,0.855359877855216,0.8572313164845411,0.4672554243769265,-0.3423522519994845,0.6971067259835351,1.7087252327608002,0.0241243106572688,0.24587472681979566,2.1603810482369648,0.9961264687971007,0.0712470499879101,1.296426857531536,2.123858266462203,-0.3090327128066669,0.0246066454572806,99.43146636645088,2.0
-2.793197091996479,-0.9182928358701308,-2.492072264175356,-2.630370619912518,-0.9342065638749214,0.1524276397993037,0.5472282840089601,1.2226214264981068,0.586185699953363,0.5944519178303986,-0.3417592259208641,-0.108653137207788,-0.09386078857357527,-0.0123505925518497,-0.817660210686674,-0.3622922745863608,0.3312703286431111,-0.103985954631189,-0.3475625600517264,0.0490279332890068,0.4336201600075787,1.7745974292680458,0.0027587072864976,0.01799560793532376,-0.5584035760273511,-0.9967966541976206,0.0712470499879101,0.0176430787604783,-0.8057515927830992,-3.9389623401206375,19.623352251452044,87.34197302300979,0.0
0.4706543386200122,-0.0969128780053465,0.4650158213314072,0.2297655444128853,-0.1530056344249183,1.2967873239757357,0.9762285371692468,1.3782412820733767,1.237523711782248,1.2841719971007493,0.0352790284649362,-0.0633368524354524,-0.08365741694741402,-0.3858095066672711,1.8455629625360594,-0.1156953944988899,0.4622372881934664,0.6907015282291008,0.4870055745813926,0.6907840313121629,0.836741064347587,1.5105240939707612,-0.3796259616541894,0.08472923779859684,2.1603810482369648,1.000457668774616,0.0712470499879101,1.267570396233729,2.123474422863489,0.6839927533792112,-0.1128408678205121,100.27649769585254,2.0
-1.6682167838944124,-0.0304806017485021,-1.7441550880679344,-1.2156596244853,0.1301860365622979,4.763910201792557,2.8532310551782945,4.113464605436108,5.732855426285813,5.468524108736414,-0.1051786942411397,-0.1008575437415855,-0.0968175846954581,-0.9144166803528636,-0.6679812729066633,1.21035010443716,3.249668763519189,4.951502958457089,3.5097773559520515,-1.0929712022756444,-0.990324410212318,1.0072328865139295,-0.9184554954517156,0.07441642969739287,-0.5584035760273511,-1.0070469022953477,0.0712470499879101,5.07854988897421,-0.6350692546473267,-0.5269738306601043,0.4791714123936662,87.83987522744997,0.0
0.3531544130933701,1.1084249816416034,0.3224553501177503,1.7434893358978272,1.8802112451775612,-0.20103316256870388,-0.2132182680129657,0.2762211590523174,-0.2644978998273279,-0.26721569417805724,2.012314598331642,0.2055642809516869,-0.06899938137270278,-0.3108919683530142,2.494733088143116,-0.1892357591880873,-0.3634462795901336,-0.3376380371207574,-0.4767154253022759,-0.7560065576586448,-1.9774746518326256,0.6194576639412663,-0.308581468234701,-0.239704972193333,0.3478579653940876,1.006037463452227,0.0712470499879101,0.0089182427267728,-0.24981296265676653,2.020033450778388,-0.1402857987322309,116.93311582381727,2.0
1.1621911358727977,0.1298949138787343,1.0955512055027274,1.0528515089199508,0.2809198115766078,0.1891777964992128,-0.443079018205461,-0.5418750665671311,-0.1458349553252484,-0.14788672237526757,0.2558323339070441,-0.0681746895783828,-0.07814368534100903,-0.6980433730617613,-0.9881685192181656,-0.3686283979558699,-0.4320910484680199,-0.6505445185403512,-0.6404277426977217,3.7850984078149,-0.7665498306517795,-0.6243846468479766,-0.7033309544216292,-0.26747367649277176,-1.0115343467380704,0.9981889576162347,0.0712470499879101,-0.2210836018410346,-1.0119005081230723,0.6061584434994317,-0.1379267712062661,88.38874680306905,2.0
-2.3459969622722343,-0.7511306039426209,-2.1267855409081866,-2.1480772696460373,-0.6759795409682913,0.9062297082824747,2.6527225575597004,2.2457947373415212,2.0124103313732395,2.0011301931247063,-0.3332368991254942,-0.1042222755079779,-0.07752549587378309,1.3925888172438128,-1.0028287479921476,0.7853168177660613,3.312557533576011,1.8697116212902976,1.0971726979747447,0.4627544746474886,-0.1208966890018328,2.078590551921234,1.3646374558757035,2.9935212162297073,-1.0115343467380704,-0.20537758154041505,0.0712470499879101,2.0107762888808796,-1.004278627958054,-0.9132555755720162,0.9622789537325304,111.82527301092044,0.0
-0.1844272349385096,-0.7872350066383162,0.0363372322735035,-0.5266652752106947,-0.6948297082605335,0.7472082051530922,-0.8649641898446303,-0.7516947066254974,0.2459727149147889,0.2626089858987528,-0.3213551861141502,-0.0996184093945912,-0.0892588737560435,1.1113316359257246,0.6283783781599586,-0.4654802982040241,-0.5132468061827207,-0.8305713132079454,-0.8320855842779667,0.3831384013002825,-0.0041818934216265,-1.1561117636309008,1.169159936907432,-0.2725585081883532,0.8009887361048069,1.0,0.0712470499879101,0.2788919800943114,0.7799673017919746,-0.4258141145266605,-0.1389489341130171,75.78291352895351,2.0
-1.9043087124984677,0.7367882005111169,-2.1303112682751992,-0.8284185584342343,0.9820244208654884,-0.1749647436028533,0.4082831391341383,0.3661696818709522,-0.1214542142744783,-0.1107605424317975,0.6345544357617052,-0.0249334467194376,-0.0894329141493938,-0.5866984812672771,-0.9913959928821482,1.0952306608453912,-0.2801077816978117,0.3554891284453754,0.4327983728796952,-1.4126113285383322,-0.3824478242649391,-0.1889083521550736,-0.6042040663542904,-0.2300823691560832,-1.0115343467380704,-1.0,0.0712470499879101,-0.0997429294152657,-1.005760024714203,1.1073323433420443,-0.1371529200978347,71.07455012853471,0.0
0.5288763555558618,-0.7036787078446323,0.8267055904160685,0.057335096856577,-0.7122948274183994,1.169541456898926,1.14019353640809,1.1200696744920586,1.057109077621455,1.0474010563754592,-0.2855310807545037,-0.097942817761705,-0.08863515755693621,-0.0013990390128139,1.8494169141122216,-0.4244031981435717,0.855359877855216,0.8572313164845411,0.4672554243769265,-0.3423522519994845,0.6971067259835351,1.7365709308436317,0.0241243106572688,0.12499368956405482,2.1603810482369648,1.0006757682978356,0.0712470499879101,1.296426857531536,2.1153231829985324,-0.3090327128066669,0.0246066454572806,99.43146636645088,2.0
0.0279797418191581,0.0632271676332252,0.0186373686229446,0.020073954829956,0.0074910408536531,0.015104913249550813,-0.1685075634319976,0.07153468973955017,-0.17625089142492878,-0.14933057372850675,-0.0019223204778909,-0.0681294262046251,-0.04029450844962841,-0.4022231227258198,2.3324444835213956,0.5678306474390321,-0.3272331307483433,-0.4268042520638521,-0.5233680744480605,0.2947899958464674,0.7528186200274094,0.5919441524279119,-0.3993938127550077,-0.24169206078619782,-0.1052728053166317,1.007556559826085,0.0712470499879101,-0.115141806560639,-0.08756717391628971,0.606928881292309,-0.1345991417662258,118.62835959221502,2.0
-1.177870965364029,-0.5785791730160729,-0.9300682003654656,-1.2873529715083212,-0.7319219729323649,-0.9716858355732044,1.132420835938137,1.1994864304767223,-0.327960970916942,-0.3222195252336924,-0.3323537412710565,-0.1078462786491225,-0.0929830941042486,-0.5712872606641098,1.438265563681012,-0.4187734890840244,0.9050346761253542,0.3750844363595836,0.0515083878025488,-1.2447653755034722,0.6805351071338653,1.5697265398188331,-0.565208267306632,0.046104468159513,1.7072502775262457,-1.0,0.0712470499879101,-0.3158270634809633,1.6728309650450623,-2.0513547232227465,1.999078017642364,84.26332288401254,0.0
-0.8656045747486502,-0.246868448644662,-0.6662084623634711,-0.5750266272987531,-0.0890569486109137,-1.6548312840133714,-0.1277414283733056,-0.9160468780165189,-1.34648882772628,-1.3828993442127362,-0.217355729105887,-0.0897363705132824,-0.090462458303436,-0.2057361650174344,-0.9913959928821482,0.117659344436514,-0.2334432637684179,-0.4867487182307415,-0.2077014832833186,2.712827864450347,-1.0312405291459603,-2.0333375428781713,-0.2210864246831843,-0.1732706559241126,-1.0115343467380704,-1.0,0.0712470499879101,-1.4181616354386264,-1.005760024714203,0.082095677604486,-0.120984504459065,70.98331193838254,0.0
0.4977500745064281,0.3780078283006563,0.267147727885722,0.4915904021241672,0.3629754681229454,-0.2556269712576973,1.298336728279022,1.1866613943489654,0.2835887224960916,0.3006294595446912,0.0284786266910674,-0.0807018467548001,-0.0886683986662294,-0.6488054596626943,-0.9913959928821482,0.4993460275682442,0.7654318525051935,2.4424275505980426,1.7091362081109471,-0.736140359794997,0.6120236590251548,-0.2992608165693525,-0.6612704689466119,-0.0276536605405467,-1.0115343467380704,-1.0,0.0712470499879101,0.3172430536653467,-1.005760024714203,0.3509519228125241,-0.0814524032731957,74.03598971722366,0.0
0.3531544130933701,1.1084249816416034,0.3224553501177503,1.7434893358978272,1.8802112451775612,-1.1242220198133512,-0.2132182680129657,-0.32556441391030294,-1.0041517436045198,-1.0457482049387652,2.012314598331642,0.2055642809516869,-0.08200080870996097,-0.3108919683530142,-0.8190325649621795,-0.1892357591880873,-0.3634462795901336,-0.3376380371207574,-0.4767154253022759,-0.7560065576586448,-1.9774746518326256,0.6140194968620734,-0.308581468234701,-0.28360489365724817,0.3478579653940876,-0.7130196936926336,0.0712470499879101,0.0089182427267728,-0.8216641044645439,2.020033450778388,-0.1402857987322309,116.93311582381727,2.0
-0.9429558031726852,-0.6869098741282439,-0.6523904601574009,-1.066615056378816,-0.7185444348539995,-0.1091627026693016,0.9002829511763165,1.211280042025947,0.1559432116805181,0.1714587599295144,-0.3010694246587359,-0.0991051067228965,-0.0924384859181329,0.2260195723397283,-0.5864524001216215,0.8932199560813877,-0.0860941560789864,0.2564530615635466,0.4591067381390187,0.2235434764648191,0.5090241906301792,-0.3867741678112963,0.1813360122849129,-0.0381221560861356,-0.5584035760273511,-1.0,0.0712470499879101,0.1867951819079759,-0.559328193087658,-0.3878958069580617,-0.0817222139575443,75.07763082231168,0.0
0.1149777032947738,-0.5375284021996791,0.321671855147303,-0.204893894716165,-0.5620339956694864,1.2539683133769182,1.730926412410846,1.4831919039307802,1.2940156666715434,1.279648469146278,-0.2490238865317799,-0.0831328506449107,-0.0832777323906303,0.4214239506242907,1.6678202568209526,-0.4115430966849465,1.4284399758204704,1.764591883292307,1.0621203298160746,0.4624784793361732,0.8471940990532371,1.5656941400733002,0.4449824682072612,0.21997199439742396,1.2541195068155262,1.008428907883908,0.0712470499879101,1.4886342415810694,1.9437012884703782,0.2882704366698158,-0.0423795946478529,101.05263157894736,2.0
0.1267501483899662,-0.2072235353516234,-0.2170165504429478,-0.1860343145146938,-0.0274054158002648,0.7151239985826923,0.3582667766975925,0.4690127075172984,0.4397781596058724,0.4869084922522879,-0.0436917773132517,-0.0685779406649452,-0.08784675173109772,-0.3042218586978048,1.848432755047483,1.4369548982220783,-0.0534135634975091,-0.2422001246911669,-0.3321924315101666,1.1825392299595512,-0.0378038241468668,0.6034890293538316,-0.297082639176219,-0.174904341997059,2.1603810482369648,1.007713308421326,0.0712470499879101,0.6064233935189299,2.14219060417014,0.5992563977216285,-0.1257324558596536,95.07565337001375,2.0
0.8109654107527106,-0.8799606296148726,1.1678820366381102,0.1686335623026879,-0.8963711026431808,0.3671262697258068,-0.9930561082957872,-0.8365450138575367,-0.02839673782972179,-0.010947337340770202,-0.3267788210963675,-0.1044706400927205,-0.0902697290322366,0.4239519459971546,1.0308934237217418,-0.5248822872301945,-0.5230085078984603,-0.8428856554224289,-0.842734733155583,-0.5757940951773217,0.8062899461480834,0.32958832399390325,0.4660790945525445,-0.28593461502991135,1.2541195068155262,1.0032653720225684,0.0712470499879101,-0.0274231299491981,1.2419147612249317,-0.9525660298675384,-0.139617434644983,85.9552316501822,2.0
0.2694177561249389,-0.0259447096669485,0.2837791893038529,0.0100514350657455,-0.2565802095468084,-0.6415419624051167,-0.4480699302563771,-0.6826116585571408,-0.7036627278186782,-0.7099835305047598,-0.2368065796567791,-0.0957094682639684,-0.0760091883885451,-0.3765354452547354,-0.9913959928821482,-0.4769160336322334,-0.4775443415662949,-0.7267889801187942,-0.7341192420400354,2.192252716028677,0.4169718291450032,-0.9448113810992308,-0.3721419424977107,-0.2702284626152708,-1.0115343467380704,1.0,0.0712470499879101,-0.7152125890575481,-1.005760024714203,-0.1789047755404069,-0.1360127873349709,100.49725202826484,2.0
-0.3260581109056539,-0.5181496463359732,-0.075524481461719,-0.3696727411621621,-0.3918757651120955,0.4868607263321691,-0.672239709428899,-0.6505182143554212,0.0743476693860517,0.0886604017840985,-0.2570104652915432,-0.0837848171399442,-0.0916554658363674,0.511380443725771,0.2234347853994319,-0.4596350798322162,-0.4899317350519359,-0.6959440977853085,-0.7112443378410466,-0.2308737840761028,-0.2936818494483252,-0.7871075363628846,0.5080850333533922,-0.2602819137068179,0.3478579653940876,1.0,0.0712470499879101,0.1029479181164834,0.3335354701654303,0.2704450122834203,-0.1390196062872581,72.73875295974743,2.0
1.7242156857591382,1.6567662271490762,1.2451987448581574,2.4468169661255503,1.886798669231302,1.0979746391306562,-0.5223715619026634,-0.23167236171195701,0.5398453637129624,0.563524851472399,1.635487901601136,0.4858154093361596,-0.04167421869125741,0.545066976817696,-1.0035312473253477,-0.3153130189204347,-0.4662474587577753,-0.5684208756666204,-0.6206028552207282,-0.3971653370234029,-0.1522352644458726,0.29028041808552607,0.4572339256314797,-0.2593072609401008,-1.0115343467380704,1.0087236598024492,0.0712470499879101,0.5153364521198632,-0.9936924090930264,2.4601187533019777,-0.1408257451559363,84.02188069809846,2.0
0.1372901661597811,-0.6339974039645986,0.4165103599791712,-0.0372322267250858,-0.4417712796114535,-1.6789553742249277,-0.6934572733436529,-1.0304143036883646,-1.4696471739581771,-1.513228509803798,-0.2514148834696627,-0.097891020401006,-0.0916134779950071,-0.3903881555469108,0.2234347853994319,-0.52133024166193,-0.5241033477287977,-0.5544302735937892,-0.3737775899925937,-0.8273035553231674,-1.2081632958673325,-1.9391201140567145,-0.3935309305936118,-0.2847828297657537,0.3478579653940876,-1.0,0.0712470499879101,-1.5557856139384505,0.3335354701654303,-0.3057194639053619,-0.14056346286937,71.70124481327801,0.0
-1.2407328442865193,0.4767992515980414,-1.529691146611866,-1.0121378118539948,0.181939542461429,0.8102788186266289,2.126801667621875,2.653167363142535,1.6731796667000811,1.679815467869946,-0.0270160231972536,-0.0543447500945779,-0.0492232331716334,-0.1048606114476107,-0.1815088073610948,7.983780049805568,1.5327023440265222,2.5211310475338515,1.7281483763957874,0.3859855669570015,0.2918061501548742,1.090958269308605,-0.0867736822367641,0.5885637461306126,-0.1052728053166317,-1.0,0.0712470499879101,1.6835052066947296,-0.1128963614611138,0.808810002149534,-0.0921086912862974,82.22222222222223,0.0
-0.0850964016695683,0.865390800771551,-0.0668348099713038,1.1223086485762264,1.4706085956821542,-0.000149742589124,-0.6743507557356847,-0.6014835658506877,-0.2782621703941618,-0.2712213947777639,-0.1197610276352447,-0.0941032662868524,-0.0902786035882203,-0.7093852381107933,1.0333219709204853,-0.5072828279804665,-0.4980024423924623,-0.6493222701886384,-0.681262647460929,0.1338028355751521,-1.8299688311418572,-0.1598553290949392,-0.7072072142664589,-0.2806833026854181,1.2541195068155262,1.0,0.0712470499879101,-0.2636037333208307,1.2263991334185185,-0.0984815827353661,-0.1383622517246591,83.45666235446313,2.0
-2.2458062210244987,-0.8305924449471236,-1.9934133288934115,-2.2013690548439087,-0.8693119915301234,1.0728907798021179,3.6347969888235823,2.919838128096968,3.005884646180521,2.9366557419502937,-0.3336847906310478,-0.1051570189159456,-0.08917843203898834,1.0230404471760826,2.382688289446896,0.5293942713461138,5.363249709097529,3.50590299745386,2.1686810800969,1.3314490558194163,0.624393698856642,2.1839848677772964,1.0435948796633474,4.2660138851853695,-0.5584035760273511,-0.2569545223463851,0.0712470499879101,3.325147605923407,-0.4575113460336801,-1.0745221346620155,1.9968074838161527,101.73618940248026,0.0
0.3654395562393293,-0.4208673680250527,0.5248463463473811,0.148346042457391,-0.3118470082746011,-1.213393677403685,-0.8514307696088066,-0.9193378354637644,-1.158507817618257,-1.1848561752461824,-0.2743503615432006,-0.1055159049619341,-0.0931203968462405,-0.824801908111726,0.2234347853994319,-0.5264127656506996,-0.5203888993302167,-0.6441349303060565,-0.6522230258280801,-0.76738715076373,-0.5417065943369169,-0.6300345968420155,-0.8270218583005828,-0.2849365096469319,0.3478579653940876,-1.0,0.0712470499879101,-1.2099595345065672,0.3335354701654303,-1.148048946535839,-0.1381209735117478,70.21943573667711,0.0
-0.2852910662619541,-0.6106603179991875,-0.1252764120851212,-0.5469527950559917,-0.5669661182943383,0.9088956901110832,-0.5741363259058179,-0.3131740067774852,0.3953466586065975,0.413368667212158,-0.2920135806513212,-0.0992692171990381,-0.0913951741755641,-0.0104968964326577,1.0333219709204853,-0.4444669598347353,-0.4847984589692729,0.3047293588444666,0.5872900747739447,-0.5576644577162432,0.2289333860307009,-0.3509283529179354,-0.0155231243233125,-0.2660221455985772,1.2541195068155262,1.0,0.0712470499879101,0.4307411906580065,1.2263991334185185,-0.3997938666563529,-0.1351384330948735,82.4941053183128,2.0
0.1310644903771775,-0.2991854596199837,0.3111658998617599,0.4738623967347843,0.2989930006471267,1.472145375002541,1.171264781683924,1.5320236831831129,1.4636675184845906,1.4749357095759652,-0.0652597404997195,-0.0172270232208771,-0.0507930593285631,0.6640365701234141,0.2234347853994319,0.4494753807685659,1.1520070763960542,0.7128617905198945,0.4965441889016391,-1.2577228447337454,-1.3479860053234942,1.288784167254679,0.6663247522042465,0.9605415389730249,0.3478579653940876,1.0,0.0712470499879101,1.483549737698988,0.3335354701654303,1.1680819003570226,-0.117293290109499,111.53526970954356,2.0
0.5545131938910439,-0.7048590398594491,0.7768824329771712,0.0376941911896162,-0.6896611140029831,1.2449342532393846,0.6746780169885109,0.9988170254108056,1.0283811997368624,1.045861029558646,-0.2982152666411467,-0.0972404342193365,-0.0910503197348242,0.3567655429346246,1.8432091564415387,-0.3961290204727539,0.3977020821620765,0.5327079055698624,0.2780514188958497,0.287093285749218,0.6277875715946303,1.6561325120698374,0.3757760384153449,0.2833244016163645,2.1603810482369648,1.0,0.0712470499879101,1.0614338572662054,2.1192627966716073,-0.2654044802212027,-0.0369742213987658,92.93978748524204,2.0
-0.2723230099966561,-0.5960466379043251,-0.0945420411989393,-0.501339553225862,-0.5389273389886734,1.1881179844313277,2.546927741809368,2.157542790471809,1.799991235854715,1.8507865235536465,-0.2761541106862404,-0.0834918856295574,-0.0868478443071263,0.9001114791244925,2.3846484075114285,-0.4519071226145416,3.571279521279027,2.5050002815394987,1.5177136249842638,-0.2002126646155539,0.5007350374338208,1.9020728689567594,0.8939490806754182,1.3841089181045767,-0.3318381906719914,1.006649778920531,0.0712470499879101,2.182461213191222,-0.48050193644944783,0.2785110481968741,0.068564670043934,101.40582524271844,2.0
-0.5344887988347766,-0.3613471612936564,-0.5347237609593188,-0.4506072824839043,-0.0577751297710995,-0.0684366466999592,0.4864228317230675,0.5636185820042484,-0.0126212421861429,0.0002122753416423,-0.1625179081552776,-0.0087085972770918,-0.0044615127335685,1.4984626087727704,-0.1815088073610948,0.4342684780250875,0.0542074328084704,0.6699342468586047,0.4549902529460583,-0.5785424323625914,-0.6329252278430861,0.2166565551112583,1.5002398306389215,0.3464546032101754,-0.1052728053166317,-1.0,0.0712470499879101,0.0131795787405002,-0.1128963614611138,1.2295435399217542,-0.1334607401186273,81.22686409307245,0.0
0.1149777032947738,-0.5375284021996791,0.321671855147303,-0.204893894716165,-0.5620339956694864,1.1095491133109754,1.730926412410846,1.6503302624212617,1.3747687234359782,1.3890377512796965,-0.2490238865317799,-0.0831328506449107,-0.0856049928382995,0.4214239506242907,1.378970366385508,-0.4115430966849465,1.4284399758204704,1.764591883292307,1.0621203298160746,0.4624784793361732,0.8471940990532371,1.8550113463027507,0.4449824682072612,0.4857373725299885,1.2541195068155262,1.0069301545077465,0.0712470499879101,1.4886342415810694,1.571673384535038,0.2882704366698158,-0.0423795946478529,101.05263157894736,2.0
0.2724907661211956,0.3118005321145832,-0.5161335621150698,0.104403220587963,0.6204930761314805,2.193353404388596,2.1664235716538163,2.74142822102233,2.7323105026122705,2.69985272746106,0.0679370827530842,-0.0585634460001828,-0.0738111352030148,-0.3751877588812897,-0.9913959928821482,3.4044037727557637,2.0114414319290423,2.967497002668547,2.3121368322000313,-0.7433217676621051,0.0121614111896803,0.9075141784559336,-0.3838824782226517,0.5081773820734256,-1.0115343467380704,-1.0,0.0712470499879101,2.6640367084670564,-1.005760024714203,0.7530473450576679,-0.0756921161301485,77.0783384443825,0.0
0.5907561191932498,0.9645915714013108,0.6393434522559264,1.2975680331627553,1.0205017336716962,-0.15206298236276403,-0.7509251283969507,-0.7727940675915046,-0.4127987380796964,-0.4008935795734867,0.6867061973003075,-0.0610201145052532,-0.08227356723830058,-0.8302663188992885,-0.8797206647832091,-0.391659070314331,-0.4995893318048255,-0.6871732752904649,-0.6704423083761112,3.355157324919636,-1.528059555935234,-0.36400259253654244,-0.834987077192079,-0.2660126678443822,-0.5584035760273511,0.9821214158499529,0.0712470499879101,-0.5827870487682109,-0.8600536524192962,0.7183710873168139,-0.1402061496834231,89.83623602807383,2.0
0.1310644903771775,-0.2991854596199837,0.3111658998617599,0.4738623967347843,0.2989930006471267,1.1867124431406844,1.171264781683924,1.690486738303233,1.3042648921425237,1.309138659031381,-0.0652597404997195,-0.0172270232208771,-0.07311128180787506,0.6640365701234141,2.0433792591010733,0.4494753807685659,1.1520070763960542,0.7128617905198945,0.4965441889016391,-1.2577228447337454,-1.3479860053234942,1.1374213262876303,0.6663247522042465,0.4862295817126062,0.3478579653940876,0.9972331109972528,0.0712470499879101,1.483549737698988,-0.16367152121367254,1.1680819003570226,-0.117293290109499,111.53526970954356,2.0
-2.018815445885659,-0.68683035705991,-1.7415196958946118,-1.862462398623471,-0.683310161581941,2.172577700453412,2.027671128555039,2.4616421786588374,3.021034035844551,2.99051486736177,-0.2991221946908053,-0.103317694006709,-0.029007587276847824,-0.3558837959784877,-0.9913865705762843,1.226397249617535,2.3369682973855403,0.8703271862311257,0.3334738524687773,0.2420796749000823,-0.0599449951607883,1.339996218735225,-0.3676951853923759,0.8147897250426516,-1.0115343467380704,-0.9940825091877425,0.0712470499879101,3.3244304542376124,-1.028746739392484,-0.7864704334354511,0.5439142553158315,98.63858207038274,0.0
0.6328508143606997,-0.4333168239447405,0.7904155279212606,0.221709809441114,-0.4717693953023336,-0.1508666632667865,0.7254051735676192,0.9294150628248218,0.036899644665512,0.0506004635205127,-0.3208509783660436,-0.1050393127352483,-0.0921982156161128,-0.095670178505623,-0.9913959928821482,0.4172294222590001,0.2867851968001007,1.296992627510248,0.7832638707287982,-0.4733236534255848,0.4376443740003941,0.8035296050513974,-0.100059590024061,0.062872165524325,-1.0115343467380704,-1.0,0.0712470499879101,0.064345224200655,-1.005760024714203,-1.052017738751836,0.1450444567759273,84.98198661863098,0.0
0.0998805225811518,0.802260715499168,-0.0748122133067669,1.4621582838067375,1.904297570050982,0.8893378057423315,3.064771956623074,2.4794361140097,2.3452093908111444,2.3177111674928215,0.5504703472018032,-0.0075772492957542,0.03296720316277916,-0.4348779466714609,-0.9969527606764255,1.7541575297013663,3.9260354564257063,3.05386927532962,2.817045881690216,1.094191469830125,-1.1843115517173362,0.9615249881042011,-0.4467129435654877,0.8516652906310663,-1.0115343467380704,-0.4738191701210416,0.0712470499879101,2.3598324293470623,-1.0055064128507363,1.2373096971823814,-0.0841918186384184,100.15538290788014,0.0
0.1008369232809136,-0.5250987567207532,0.2639069077806901,-0.1892135008915132,-0.487579213031311,-1.2012049399299412,0.4877049705222114,-0.6458785295836869,-0.817712418659997,-0.8284893349519219,-0.2642092166740958,-0.0890872926415304,-0.0882962157605413,0.309175576268799,0.2234347853994319,-0.438445023812997,-0.0357441483979746,-0.0824657560168878,1.25637839503231,-0.8030736891935198,0.2533439516281002,-2.490517140113937,0.3147326060232825,0.0070274823910417,0.3478579653940876,-1.0,0.0712470499879101,-0.8380911897300657,0.3335354701654303,0.1053175895637991,-0.1086570379225399,70.20822752666328,0.0
0.0998805225811518,0.802260715499168,-0.0748122133067669,1.4621582838067375,1.904297570050982,0.6635357384695747,3.064771956623074,2.6472152564200457,2.592297935437539,2.5708468450766575,0.5504703472018032,-0.0075772492957542,0.02507969321424826,-0.4348779466714609,-0.680928564767546,1.7541575297013663,3.9260354564257063,3.05386927532962,2.817045881690216,1.094191469830125,-1.1843115517173362,0.6613558769829113,-0.4467129435654877,1.3100389645801012,-1.0115343467380704,-0.9875440087334444,0.0712470499879101,2.3598324293470623,-0.7046045667323677,1.2373096971823814,-0.0841918186384184,100.15538290788014,0.0
-0.1951815409194879,-0.4805324996593269,0.0068493306584878,-0.3341628458685349,-0.4254885186170794,-1.6351756012819765,0.1451359386156064,-0.8939835917743439,-1.2514279074525376,-1.282617536605669,-0.2848020339940199,-0.0918077794675535,-0.0908078006648158,0.5177565595086845,0.2234347853994319,-0.4653215597884694,-0.0272951253596711,-0.3149730306382454,0.759828550727326,-0.3748270460744536,0.2174747541744914,-2.7359779453716233,0.5199975689560209,0.0551708933815896,0.3478579653940876,-1.0,0.0712470499879101,-1.3125967020583298,0.3335354701654303,0.0022861534979416,-0.1028133120961195,68.71165644171779,0.0
1.8829390628081373,0.6882837685540045,1.4320622953098332,1.5018981135169809,0.5247558465504509,0.6463494971246667,-0.8369908047002786,-0.5923302195552477,0.1743814629704375,0.1901441259544721,0.2890065910212382,-0.0553150991821904,-0.0814837888669192,-0.5945067097031069,-0.5864524001216215,-0.5067851348656605,-0.5101375912497683,-0.75300473732724,-0.7748669940887921,0.5171810949515282,-0.0728555831119815,0.451189400003167,-0.5975771464790257,-0.2819745947766239,-0.5584035760273511,1.0,0.0712470499879101,0.205692334118571,-0.559328193087658,0.7963770039160407,-0.1405411898958017,85.37745604963806,2.0
1.8829390628081373,0.6882837685540045,1.4320622953098332,1.5018981135169809,0.5247558465504509,0.6251009476735315,-0.8369908047002786,-0.4267741310738621,0.1836940033271798,0.19221151345744023,0.2890065910212382,-0.0553150991821904,-0.06184619857044683,-0.5945067097031069,-0.6861332860756397,-0.5067851348656605,-0.5101375912497683,-0.75300473732724,-0.7748669940887921,0.5171810949515282,-0.0728555831119815,0.41391367912955096,-0.5975771464790257,-0.271329441358337,-0.5584035760273511,0.9929819799403107,0.0712470499879101,0.205692334118571,-0.6733760159106762,0.7963770039160407,-0.1405411898958017,85.37745604963806,2.0
0.5506839175798048,-0.2343312920830035,0.6022342813829236,0.4948504152732787,0.04921139319401,1.293256391902664,0.1842222836053196,0.6404939636623213,0.8976568678830193,0.9062830977136076,-0.1435559928241834,-0.0526249211033872,-0.06056408777727612,0.4461279265621113,-1.0029664767596667,-0.2918970857551969,-0.1957956122588697,-0.088739812291654,-0.1956811053047736,-0.7663819001681277,-0.4880338546409337,0.8826533524154663,0.4122901935952132,-0.0985140270535766,-1.0115343467380704,1.01568928101759,0.0712470499879101,0.930101003750702,-0.9876646473238387,0.8303104504300585,-0.1333360733548096,99.59966168593178,2.0
-0.1562963429328764,1.794363705072719,-0.7041723550224164,0.264332460696439,0.9993881950379124,-0.995851614886681,0.2023796686584392,-0.1346084749156577,-0.7832828997882649,-0.7926751165293863,0.4262709785853958,-0.0848043777131981,-0.0921569692993303,-0.9271250383027618,-0.9913959928821482,0.5631940510957256,-0.1707620624521226,0.1051519122327621,-0.0037903676977366,-0.7791642826743165,0.7557696436304704,-0.2457210977515803,-0.9336276273966144,-0.25562779946228,-1.0115343467380704,-1.0,0.0712470499879101,-0.8009145774652425,-1.005760024714203,0.2416123550954567,-0.1217253265999075,68.96988906497623,0.0
-0.3306324259100563,-0.7997677076193836,-0.0793351160907126,-0.6764642265252376,-0.7729329103746267,-0.0923918568413729,-0.9860731620763762,-0.8551770960385904,-0.3688611935896251,-0.3642405063520982,-0.3187306512460287,-0.1006536401801808,-0.09112509375113,0.7364925603911407,0.6283783781599586,-0.5248948327958072,-0.5227654760602036,-0.8301113060987023,-0.8344250351267276,-0.1315052906792708,0.485059181922416,0.794615304278432,0.7884958145066738,-0.2821278896839974,0.8009887361048069,1.0,0.0712470499879101,-0.3589102243439874,0.7799673017919746,-0.5092750363103152,-0.1402139327292744,77.27554179566563,2.0
0.3531544130933701,1.1084249816416034,0.3224553501177503,1.7434893358978272,1.8802112451775612,-1.0921783715234952,-0.2132182680129657,-0.32214337914085156,-0.9564062555270072,-1.0066632253177055,2.012314598331642,0.2055642809516869,-0.0798382880954273,-0.3108919683530142,-0.7695975818633494,-0.1892357591880873,-0.3634462795901336,-0.3376380371207574,-0.4767154253022759,-0.7560065576586448,-1.9774746518326256,0.612385069744306,-0.308581468234701,-0.27335620666629834,0.3478579653940876,-0.6742793511760697,0.0712470499879101,0.0089182427267728,-0.7869022705602325,2.020033450778388,-0.1402857987322309,116.93311582381727,2.0
0.6980332545359541,-0.0124989022165877,0.5718204311664702,0.3919579341455378,-0.0509512340846605,-1.1070501967023063,1.0434887463140594,-0.6025466851584652,-0.475198929443699,-0.4737107318159432,-0.0145266519170406,-0.0885038774154826,-0.0903864990092625,-0.733990041948242,-0.9913959928821482,-0.0969872160136861,0.7841568479573937,0.2355443968003409,1.6146821143068055,0.7974691125966469,0.5824702110042252,-2.4456426491290717,-0.7387405996236142,-0.0700795205248307,-1.0115343467380704,-1.0,0.0712470499879101,-0.4713717466537021,-1.005760024714203,0.125543915837871,-0.0572802059041506,71.36809499225606,0.0
-2.3459969622722343,-0.7511306039426209,-2.1267855409081866,-2.1480772696460373,-0.6759795409682913,0.7575184049183468,2.6527225575597004,2.165228748397572,1.907151278429038,1.905560723942282,-0.3332368991254942,-0.1042222755079779,-0.08577785153185506,1.3925888172438128,-0.8097833150610376,0.7853168177660613,3.312557533576011,1.8697116212902976,1.0971726979747447,0.4627544746474886,-0.1208966890018328,1.9946087456433883,1.3646374558757035,3.273834089498482,-1.0115343467380704,-0.6746502867929178,0.0712470499879101,2.0107762888808796,-0.7829798081676147,-0.9132555755720162,0.9622789537325304,111.82527301092044,0.0
-0.0182127832088725,-0.8922537227967168,0.2591347111425112,-0.4886766922334455,-0.85853564141144,-1.9439256746311877,-0.844481404303681,-1.1392604753092113,-1.6678993249012075,-1.7239998592194836,-0.3346587590450375,-0.1076793113991984,-0.0934503733675821,-0.2780440735849506,0.2234347853994319,-0.5264740801839461,-0.5067701992414699,-0.7308134145909205,-0.7282816214045296,1.82438305303241,-0.36786875279114,-1.9006800890270945,-0.2689391531757962,-0.278504882919812,0.3478579653940876,-1.0,0.0712470499879101,-1.7793880204750632,0.3335354701654303,-1.9292433908946889,-0.1151131326659514,66.99444885011896,0.0
2.1221916254786604,2.258078410878211,0.2417909815694283,2.3431162172748894,2.708571374519984,0.157056293550664,-0.9396327398161624,-0.7514731687194458,-0.1871275441583801,-0.1778815040211966,1.0935644054360396,-0.0075163045256002,-0.0825579010186777,-0.6796871069104622,-0.9913959928821482,-0.5184016321855538,-0.5201938729897365,-0.7681180984008832,-0.7680121111486228,0.6362730209000753,-2.234549423149943,0.3469048512907355,-0.6833199682027344,-0.2844684751149017,-1.0115343467380704,1.0,0.0712470499879101,-0.1682022899160941,-1.005760024714203,1.2377255838499328,-0.14086635701952,85.70983649104593,2.0
-2.773457051062002,-0.7061869287317242,-2.49944423957911,-2.491698820916843,-0.7533395465224753,-0.1876454244791334,2.1057476813733507,2.4810444720339992,0.9322820092353976,0.95050073517444,-0.3255222170863067,-0.1064855621706422,-0.0927875240047092,-0.3064300558952322,-0.1815088073610948,-0.2834322962567994,2.716091736066129,0.919950477918378,0.3154315914675305,0.3485696158573704,-0.3281253739833225,2.1602324989746187,-0.2990498916448177,0.8206847896267739,-0.1052728053166317,-1.0,0.0712470499879101,0.9669958812514576,-0.1128963614611138,-1.397888773946344,1.7394230481442254,88.93463715903242,0.0
0.1149777032947738,-0.5375284021996791,0.321671855147303,-0.204893894716165,-0.5620339956694864,1.0590900406329102,1.730926412410846,1.7141583304639698,1.4192685414705128,1.4148739264014916,-0.2490238865317799,-0.0831328506449107,-0.0871975597447781,0.4214239506242907,1.2183904508737817,-0.4115430966849465,1.4284399758204704,1.764591883292307,1.0621203298160746,0.4624784793361732,0.8471940990532371,1.968686015881153,0.4449824682072612,0.7080828394721936,1.2541195068155262,0.9997956863507298,0.0712470499879101,1.4886342415810694,1.458679287643357,0.2882704366698158,-0.0423795946478529,101.05263157894736,2.0
0.0382016316324622,0.1021357894590844,0.0301404993254205,-0.0474433422913109,-0.0880772804183061,0.33719982206050814,0.714150492390396,-0.018614653039983962,0.11413378953589365,0.11263157172793431,-0.2538036852278826,-0.0899051629238099,-0.05976768654107292,0.1116338994626391,2.2580586089737467,0.2041634958105378,0.219171418999735,0.1724008078193908,0.0251219541357846,-0.6587597199173355,0.7396615314631182,0.4057150132251185,0.1331902648029949,-0.1755706794367835,-0.5584035760273511,0.9837930500697568,0.0712470499879101,0.7084989301183229,-0.5672283482608765,0.0759266289899728,-0.089776574085864,102.4,2.0
-1.3319170520190848,-0.4892088136086379,-1.1779731316965336,-1.2226107269024136,-0.4155904917055615,0.1112570800149313,0.0275787102866907,0.2310344102984747,-0.0499100335703716,-0.0377734092430527,-0.2425185763171439,-0.1049548246957934,-0.092585011611376,-0.8848962657851316,-0.9913959928821482,0.1332894165509185,-0.2842417139303614,0.3913630458087341,0.0364647660190491,-0.7720045510556852,-0.0719201598596923,0.8708666021245612,-0.8901997415219634,-0.2609938504789174,-1.0115343467380704,-1.0,0.0712470499879101,-0.0254366586339397,-1.005760024714203,-1.0363050036959165,-0.0574609657435408,81.53288451579492,0.0
-2.1994973501029955,-0.6080529762905053,-1.9608626742121016,-1.8159331200406983,-0.4169079765163096,-1.1652463561398656,1.8206527394663132,1.7915365710411193,0.3119334615911426,0.34109599465546014,-0.2557382448609349,-0.0944998138244154,-0.09344803306531939,-0.1393346258584542,-0.6452281110629561,-0.1742237448097186,1.559464114213936,0.8245038182804512,0.3245068296004642,0.5664019932884456,-0.9068758421637334,2.0558151330553374,-0.1466841295155182,1.2671147529151365,-1.0115343467380704,-0.9983202463539984,0.0712470499879101,0.4130629161044547,-0.6505672434716551,-0.1174830773841576,0.0483666665873725,104.21711899791232,0.0
-0.9888742643830866,-0.4303679842581729,-0.9333446338782452,-1.0644057912695006,-0.4492708085341735,-0.0990030014688545,0.5620569489040748,0.901031727849876,-0.0018009235337491,0.0112277612463631,-0.2723670665827161,-0.1054316826718464,-0.0933340657285817,-0.8255491280059957,-0.5864524001216215,1.4096862182189398,0.0046871978896696,0.4671345726659031,0.2180644129248689,-0.8272128410555356,0.6388678788428719,1.0324858435338575,-0.8290050888187376,-0.218430226434132,-0.5584035760273511,-1.0,0.0712470499879101,0.0243707654988459,-0.559328193087658,-1.130077443093051,0.0683291846726086,84.10951760104302,0.0
-2.031870685039558,0.206413284483681,-2.047795002524002,-1.6068342601212438,-0.0722674626893287,-0.7884714419871898,-0.3051817220569568,0.011963896020525196,-0.7150599159301907,-0.763416500868864,-0.0612016158430912,-0.1025207559698834,-0.088668584585715,-0.9860835588444554,0.9186472651337209,-0.2909065172711714,-0.3838295179536956,0.0058514775053875,0.0108170943394392,-0.5041314330408455,0.557361452350656,0.5753828361879786,-0.9918832854899486,-0.2542314393100312,-1.0115343467380704,0.050126033763809794,0.0712470499879101,-1.237613977646817,-0.6487149761912984,-0.6913015865490387,-0.1110478262237673,106.9417225373904,0.0
0.7645732285363367,0.6784624213379361,0.907049438294662,0.8889078724543046,0.2541647354198768,-1.876816372072589,-0.503878000984818,-0.7384534505065047,-1.5809267092969224,-1.63138584760442,-0.2631462377552319,-0.1029106174177487,-0.092289876705035,-0.6617984664404922,0.2234347853994319,-0.4467663390376751,-0.4300961533237997,-0.6669296539141405,-0.6511153333313661,3.4301301430189004,-1.44029440792461,-1.3285358411501575,-0.6593899809051617,-0.2669062911385241,0.3478579653940876,-1.0,0.0712470499879101,-1.6809779251381598,0.3335354701654303,-0.7362218010748228,-0.1193225098481725,69.90897269180755,0.0
-0.104632994855329,-0.3410973619412586,0.0996578712487426,-0.0900390512892052,-0.2074278916073596,1.0234818998640212,-0.2170911214663956,-0.072414149686395,0.5479392460108833,0.566772663953298,-0.2754742968098013,-0.0964628827625136,-0.0911621671340478,-0.0346738368751902,0.2234347853994319,-0.0768752311055631,-0.377188836039615,-0.3839066167780591,-0.449300949334572,0.2656155979945659,-0.6503319449274486,-0.248580070047266,-0.0337280294053186,-0.2176582090353799,0.3478579653940876,1.0,0.0712470499879101,0.5846488737334953,0.3335354701654303,-0.2201200494957127,-0.1251446911584663,75.16778523489933,2.0
-0.0807547694484036,0.8106196699746974,-0.1994947538311269,0.3267307289058781,0.5989065942322999,1.0436843605273183,3.4876946425546813,2.8081228301528998,3.0953359346036122,3.054536067057088,-0.1589779797361006,-0.0753718867353531,-0.080646423779003,-0.045861302320748,0.5235089203822196,0.8716833415853008,5.281975270735357,2.7259235067300693,2.1729531111343054,1.1906986503897514,0.1268828419003877,0.6993190690477342,-0.0327455282748286,2.6071787957691774,0.3478579653940876,-0.6049453357371634,0.0712470499879101,3.102622383796945,0.6767381345224943,0.4712148117992396,0.0836803995843426,103.40532959326788,0.0
-0.553418362138329,0.3954285837556823,-0.7670300196969366,-0.145782581913268,0.544788372006185,0.0036047979591155082,-0.4327503727730407,-0.2174184758637671,-0.19329733402588295,-0.20139055271931403,-0.2395762428711182,-0.0861792232878909,-0.06804079920468895,0.1218536012528867,2.25298042048747,-0.3631923085778692,-0.4958501850928094,-0.7168290401933296,-0.7422196157597587,0.3294807318142071,0.0980177693738223,-0.21975503047352077,0.1438043496435604,-0.19236795018312924,-0.5584035760273511,1.0122222650927315,0.0712470499879101,-0.490082774031703,-0.5504088426453299,0.2007215655508486,-0.1391521951848451,105.58754863813228,2.0
0.5617731344259368,0.2289060315086684,0.3714950125862003,0.4248813727258205,0.1803518043561684,1.2896588227358279,1.9952931468839192,2.9621129089789777,2.416518383422068,2.374214630345163,0.0981439149788651,0.040759581063721,0.04609945666304674,0.7142097468949888,-0.6766622772684033,0.0635453727045121,2.220803527721537,1.5384557980104154,0.7941811139073618,0.9254749900213168,0.857046310816928,0.8006225066075614,0.6928930217766045,2.225531551488221,-1.0115343467380704,-0.7346838101844826,0.0712470499879101,1.948353559584456,-0.6218506895709291,1.50699562849471,-0.1172563684405565,114.7012987012987,2.0
-1.938272718689784,0.0491528652190685,-1.874963134724882,-1.0595561849319797,0.449997028955949,-0.5959390864814419,2.505171905055999,1.7101546373055774,0.48829208798113377,0.47898861789399266,0.1297552772477795,-0.0752476619428009,-0.08992153269363458,-0.6769145927182075,-0.9845469075275569,-0.2647271542530136,2.9405725659862294,1.7050002884982816,0.9697221230954812,1.9622009029544567,-2.417031317094956,1.689804894008883,-0.6792194399513787,0.5153515634542629,-1.0115343467380704,-1.0020391713932348,0.0712470499879101,1.1943648746899174,-0.9821979198960993,0.4737824144010173,-0.0073552810815161,98.17547937245789,0.0
-2.353946109517205,0.3339906543314356,-2.2107975697847833,-1.495616621447425,0.2218019034020129,0.22983168331955978,0.4094200886842099,0.8051180479723422,0.3220277430545453,0.34900478299003385,-0.0609429842923641,-0.0872969166932576,-0.0757968312334125,-0.6450341117450689,-0.28007177222730867,-0.3458904597094358,-0.2241179261263418,-0.1057074018364706,0.0895077506627771,3.4606631373052665,-1.985762902301165,-0.11824369762023683,-0.646913126865413,0.17262815743681875,-0.5584035760273511,-0.24157793064453056,0.0712470499879101,-0.3509519635055181,-0.2307601262634848,0.1655960905447698,-0.1226986711923626,109.02208201892743,0.0
0.3531544130933701,1.1084249816416034,0.3224553501177503,1.7434893358978272,1.8802112451775612,-0.7750899733947277,-0.2132182680129657,-0.09733051066144204,-0.6881885941949907,-0.6899710590504708,2.012314598331642,0.2055642809516869,-0.07223832170002838,-0.3108919683530142,-0.6208738676430038,-0.1892357591880873,-0.3634462795901336,-0.3376380371207574,-0.4767154253022759,-0.7560065576586448,-1.9774746518326256,0.21935754411200187,-0.308581468234701,-0.27883757577160856,0.3478579653940876,-0.5465532616904799,0.0712470499879101,0.0089182427267728,-0.5815621081600464,2.020033450778388,-0.1402857987322309,116.93311582381727,2.0
1.1989459578959054,0.2901338677952462,1.117417837859756,1.4437297797241573,0.7502822208210767,0.3877965134885176,-0.6385952132178153,-0.4404208160728596,0.006564923259176,0.0197423317814125,-0.1009748193993181,-0.0452184458564116,-0.0805074394679428,0.3659266106832864,-0.9913959928821482,-0.4544047302180287,-0.4716495651117625,-0.5636631926532516,-0.6017789604946496,1.236031946452948,-0.8614464804303196,-0.4111534634792342,0.3401419468010664,-0.251229640941397,-1.0115343467380704,1.0,0.0712470499879101,0.0330189448218605,-1.005760024714203,0.9159383400346682,-0.1398260868667837,84.48196469685341,2.0
0.7521449624742169,-0.4902655488043098,1.0144594760614345,0.2802283925805362,-0.6109160603144228,-0.3991745234491117,-0.1170290929035441,-0.03375231261597,-0.4575299956081252,-0.455499357295161,-0.2727003231183799,-0.0879237085841133,-0.0896245035518198,0.537523591094307,0.2234347853994319,-0.2536259411571969,-0.300046633869544,-0.2748068479133082,-0.1955991045068948,-0.4903862284201022,0.911704495899345,-0.4690282141489285,0.5502093048879974,-0.1288903745039448,0.3478579653940876,-1.0,0.0712470499879101,-0.452640223798491,0.3335354701654303,0.1450866407416208,-0.1268570657046263,70.01823391508205,0.0
-2.018815445885659,-0.68683035705991,-1.7415196958946118,-1.862462398623471,-0.683310161581941,2.9868142720765785,2.027671128555039,2.459040833800761,3.428131589014219,3.3757763318137592,-0.2991221946908053,-0.103317694006709,-0.09135999674369359,-0.3558837959784877,-0.8349121012340236,1.226397249617535,2.3369682973855403,0.8703271862311257,0.3334738524687773,0.2420796749000823,-0.0599449951607883,1.5034497800567004,-0.3676951853923759,0.8920117752673883,-1.0115343467380704,-1.0163509578904162,0.0712470499879101,3.3244304542376124,-0.8047393137198974,-0.7864704334354511,0.5439142553158315,98.63858207038274,0.0
-0.1222999143949895,-0.1759095623509425,-0.1155183383622778,-0.3135250766766392,-0.2835379756744237,1.124620343728508,1.6610839933601602,1.596081301406783,1.3429493111805055,1.3657218097478194,-0.2033382871439887,-0.0903164821677178,-0.07846463948850291,-0.3168211202813283,2.3496708863108413,0.0703854135609586,1.4275544926426933,1.117150245583801,0.5942519081178156,0.7316192186753124,1.0096784734778244,1.577442517641995,-0.3085637644326609,0.35934572985664304,-0.5584035760273511,0.9958668277815207,0.0712470499879101,1.6416962282918035,-0.49490768279339115,0.0606587043330915,-0.0039396878709092,103.342776203966,2.0
-2.092427723180573,-0.917487734289116,-1.756940301449324,-2.0363746703384664,-0.8867433290261753,-0.5806977923147236,2.251975562221148,2.0832043715319366,0.9426241819528314,0.9642673192098867,-0.3406070049454602,-0.1084151743847118,-0.09220260366840594,0.0619344438674527,-0.8861806948482553,-0.451974467974247,2.8551362822813777,1.094689609191086,0.3341817728970643,-1.0379643921408055,-0.94326547665599,1.9031168422558258,0.0743396575915964,0.6264859734073837,-0.5584035760273511,-0.9981816383624122,0.0712470499879101,0.3233439949391846,-0.9028474310672219,-2.7946509095020513,14.691964140655026,98.14696485623004,0.0
-0.3276421419677577,-0.8423835173482872,-0.0039415318890359,-0.6782963000305234,-0.8467458414383352,0.20484247382696,-1.0109451483753222,-0.8344262828697153,-0.1554213898541079,-0.1454617019566201,-0.316440395301551,-0.1022419689456936,-0.0913005451515618,0.3083372268187098,0.6283783781599586,-0.5265755265362431,-0.52444264874767,-0.8353326704240568,-0.8375605874055078,-0.3468774396374292,0.6685090653521846,0.9671010834940196,0.3466190075645002,-0.2839789780827899,0.8009887361048069,1.0,0.0712470499879101,-0.1351210180215477,0.7799673017919746,-0.660882428647631,-0.1403654061233035,76.85912240184757,2.0
-0.1337288770965825,-0.1729723455008885,0.1182836835007393,0.1626793234105091,0.0917762870797183,0.4115108465761791,-0.7540011520121007,-0.6828333223709752,0.00721878134473655,0.0232518091951419,-0.3015341854936751,-0.0993898376264853,-0.08999299600097636,0.1997568132101972,1.432656876240597,-0.5002889463415635,-0.5136694017635128,-0.784576407219861,-0.788535997034928,-0.4922633779517067,-2.1515077410413386,-1.0928784159796057,0.2335067053004928,-0.2880005474987595,1.7072502775262457,1.004675929558327,0.0712470499879101,0.066706806495138,1.6856725911005628,-0.4086715201472692,-0.1390566746218772,90.0,2.0
-2.628863577549588,-0.3292806721400362,-2.485875531227273,-2.348635433959968,-0.5868297354410023,0.4913500706543934,2.17226192361505,1.8001910189062769,1.381300773284657,1.4024385099394219,-0.2723652434976446,-0.0963562920090288,-0.08977138046178564,-0.0711577712472106,-0.9883180942234139,3.929838836515146,2.490763289658016,0.8431382494391438,0.2600638685226987,2.0755354018932533,0.7510638204089531,1.5650043646188838,-0.0849606704289861,0.566610777310073,-1.0115343467380704,-1.0046117254126532,0.0712470499879101,1.57683870734724,-0.9868992614501323,-0.2141374558019407,0.174006317210717,87.88166341054982,0.0
-0.7523421535792181,0.9071512301118192,-0.9249398696498108,-0.0798548779804108,0.7772399869486919,-0.4805640342154226,0.3426433430118718,0.4052763314055803,-0.3660099297951624,-0.3613096013209719,0.4283107283486184,-0.0488519311895679,-0.0858698895463366,-0.6358048576047309,-0.9913959928821482,-0.0068576945838832,0.1081652804409625,0.4432594688546433,0.3957443112718278,0.9846320788837672,0.1201254584497121,-0.1734142287119175,-0.6392808333247938,-0.1554853826766623,-1.0115343467380704,-1.0,0.0712470499879101,-0.3559036880708268,-1.005760024714203,0.875256112495744,-0.1272703946770174,76.84044233807268,0.0
-0.3035024219172689,-0.5969103401432462,-0.0801186110611599,-0.4298886865197167,-0.4630199448924936,0.2782629967277791,-0.619418511726574,-0.6231633419647984,-0.0703170479927927,-0.0585777971841022,-0.2751421856154092,-0.0982560429343574,-0.0897022000409561,-0.1861552163921215,0.6283783781599586,-0.475610021089703,-0.4989758639266973,-0.7391138952278298,-0.716735043162618,0.0468930047784035,-0.151549984931543,-1.6425020245965738,-0.1658451871852282,-0.2746683533592519,0.8009887361048069,1.0,0.0712470499879101,-0.0466026231350485,0.7799673017919746,-0.3294144458206095,-0.1374509139913081,75.78291352895351,2.0
0.6049199847101934,-0.5458727277277288,0.807438736824615,0.2012067515363718,-0.5136248742899467,1.0620775976649832,1.5372162819427906,1.6036480445303138,1.3995772118290832,1.4120512096783358,-0.2740176392898633,-0.0921629918852006,-0.0909859567069627,0.2690765878025631,1.438265563681012,-0.4212443135510634,1.474230403537394,1.4106904398175375,0.830765094000001,0.8710083119076613,0.2654616269144243,2.0100074041251297,0.2894788392424062,0.8730087655457561,1.7072502775262457,1.0,0.0712470499879101,1.421970322012268,1.6728309650450623,-0.0123770054701248,0.0149877270312434,92.02614379084967,2.0
0.2694177561249389,-0.0259447096669485,0.2837791893038529,0.0100514350657455,-0.2565802095468084,-0.5809355475652765,-0.4480699302563771,-0.6726926635214399,-0.6713035930679226,-0.6761039690266344,-0.2368065796567791,-0.0957094682639684,-0.07316580600591222,-0.3765354452547354,-0.35529215776622947,-0.4769160336322334,-0.4775443415662949,-0.7267889801187942,-0.7341192420400354,2.192252716028677,0.4169718291450032,-0.8338197554701965,-0.3721419424977107,-0.32559012622831873,-1.0115343467380704,0.9933296059896805,0.0712470499879101,-0.7152125890575481,-0.9211444442384729,-0.1789047755404069,-0.1360127873349709,100.49725202826484,2.0
-0.1222999143949895,-0.1759095623509425,-0.1155183383622778,-0.3135250766766392,-0.2835379756744237,1.1844954848480393,1.6610839933601602,1.8516236320534245,1.568979378062991,1.593192523785582,-0.2033382871439887,-0.0903164821677178,-0.08716424611322024,-0.3168211202813283,1.9505569251733004,0.0703854135609586,1.4275544926426933,1.117150245583801,0.5942519081178156,0.7316192186753124,1.0096784734778244,1.8370178989818136,-0.3085637644326609,0.5156595886927986,-0.5584035760273511,0.9924031894187536,0.0712470499879101,1.6416962282918035,-0.11166598738876714,0.0606587043330915,-0.0039396878709092,103.342776203966,2.0
0.1641582523348097,-0.1007315959607979,0.0795719092790942,0.0254354640586599,-0.0435868318091967,-0.1362123265492154,1.7469974527433132,1.4053051859035188,0.6814869017123795,0.7005350211869552,-0.1303563332286909,-0.0860764884616931,-0.0868763407260874,-0.4631074266590981,0.2234347853994319,1.5171338859966352,1.5957966234724483,0.7259601474596026,2.267034752939161,0.3329150144726028,-0.3058169729111951,-1.1871284929942003,-0.4573404763626814,0.3010643436953303,0.3478579653940876,-1.0,0.0712470499879101,0.7183561376287517,0.3335354701654303,0.2038622684950659,-0.0200261271765677,68.7995904786281,0.0
-2.018815445885659,-0.68683035705991,-1.7415196958946118,-1.862462398623471,-0.683310161581941,2.2717350236960754,2.027671128555039,2.4790877288541964,3.060637536701863,2.993329732059556,-0.2991221946908053,-0.103317694006709,-0.034704934139394544,-0.3558837959784877,-0.9975810695521194,1.226397249617535,2.3369682973855403,0.8703271862311257,0.3334738524687773,0.2420796749000823,-0.0599449951607883,1.3402785015747647,-0.3676951853923759,0.7443013205312133,-1.0115343467380704,-0.9962291691812757,0.0712470499879101,3.3244304542376124,-0.9967088057605474,-0.7864704334354511,0.5439142553158315,98.63858207038274,0.0
0.3531544130933701,1.1084249816416034,0.3224553501177503,1.7434893358978272,1.8802112451775612,-0.04052036807676582,-0.2132182680129657,0.14777733998000875,-0.1898436478151834,-0.19590562656433547,2.012314598331642,0.2055642809516869,-0.048361965070925335,-0.3108919683530142,1.5322189705860614,-0.1892357591880873,-0.3634462795901336,-0.3376380371207574,-0.4767154253022759,-0.7560065576586448,-1.9774746518326256,0.7001204923317,-0.308581468234701,-0.23790219867219092,0.3478579653940876,1.0034636387893439,0.0712470499879101,0.0089182427267728,-0.025050853750179146,2.020033450778388,-0.1402857987322309,116.93311582381727,2.0
1.4968154310591426,-0.2492379273577342,1.615328891579001,1.0269061150142127,-0.2446552829264473,-0.0872617172013447,-1.0200954766346193,-0.8751208996209251,-0.36627321640053,-0.3615802325286513,-0.1081634545973209,-0.0970051889671327,-0.0903337526753752,-0.8068611085144163,-0.9913959928821482,-0.5266904786624981,-0.5252670449139218,-0.8217400628806881,-0.8303354892300631,-0.4579930236001189,0.5038612293396842,1.2386294607148634,-0.8101436976863693,-0.285538704165071,-1.0115343467380704,1.0,0.0712470499879101,-0.3561812931266557,-1.005760024714203,-0.2513877581924154,-0.1407215240785757,86.88239936858722,2.0
-0.0476736396907851,-0.2803130742875556,0.0362303920502607,-0.2831072680374092,-0.3893421404760414,0.8810464648536308,-0.0171878369014741,0.2897486403397193,0.4964635512179007,0.5150910545334045,-0.1608100448278477,-0.0847007918711269,-0.0873275501679267,-0.31647800815213,1.0333219709204853,-0.1149491227326766,-0.3323398771710246,0.4585904547458516,0.3060551067571959,-1.021312733643307,0.8405266132757265,1.3081136875568855,-0.3169342934131356,-0.220055101795498,1.2541195068155262,1.0,0.0712470499879101,0.5328654377870571,1.2263991334185185,0.2445972826728192,-0.1304839832581157,85.27918781725889,2.0
0.4030998179842479,-0.30249474146137,0.3350981098681495,0.0936802021305551,-0.2004013059500363,0.01404517724196487,0.0808546524410948,0.603707095449559,-0.014097632128372995,0.023354439494297743,-0.1629809753651951,-0.1010369856385426,-0.0792102490262413,-0.8532296283227256,2.6155949988357827,0.9341145949963297,-0.3415495722509633,-0.5688437418283759,-0.6362695646216185,-0.3467068901167504,0.0391547795917285,0.8860158233034932,-0.8555175988330739,-0.13276054632433235,-0.3318381906719914,0.9991293049533209,0.0712470499879101,-0.3064690194049875,-0.3344065074327181,-0.5429338158965611,-0.1097284657889638,112.43921568627452,2.0
-1.6682167838944124,-0.0304806017485021,-1.7441550880679344,-1.2156596244853,0.1301860365622979,2.8808372327652174,2.8532310551782945,2.830283954477481,3.320448674097568,3.206439784960321,-0.1051786942411397,-0.1008575437415855,-0.06697060839265435,-0.9144166803528636,-0.8434989649402597,1.21035010443716,3.249668763519189,4.951502958457089,3.5097773559520515,-1.0929712022756444,-0.990324410212318,1.0041844201819035,-0.9184554954517156,0.1358211268934894,-0.5584035760273511,-1.0036076096247317,0.0712470499879101,5.07854988897421,-0.8362820795494847,-0.5269738306601043,0.4791714123936662,87.83987522744997,0.0
-2.2625607769921614,-0.8611673876938996,-1.9627857982304724,-2.1299990149100556,-0.8088765985447804,1.2522547981625771,3.7221028365402096,3.3338666205241667,3.838721060879884,3.7408706678970405,-0.3353606647119482,-0.1049541434884606,-0.08914705685664268,1.4859177535748604,2.644713841507272,0.4709496746173788,5.979230205303152,3.780929034924585,2.2973225245649824,1.3425906488716992,-0.2471034949826885,2.0436772002451775,1.432196110164467,9.507819759171191,-0.3318381906719914,-0.9934087636207571,0.0712470499879101,3.581197923920428,-0.3420371330255156,-1.0361797578511156,2.0927742589413874,98.7710774507002,0.0
-0.1771794223960716,-0.6619506161440013,0.0095203362395581,-0.4719994348838588,-0.6008491250938347,0.042477383760047,-0.973561364925059,-0.8293436414747786,-0.2713075798495969,-0.2640904399520785,-0.2970704464398002,-0.0918301390439256,-0.0902652237339456,0.8709748743935413,0.2234347853994319,-0.5246469006156859,-0.5232425567862734,-0.8408879342576572,-0.8404410518340865,-0.7129644550347154,0.4041490842008502,0.5898479669056723,0.9263411883206648,-0.2822547964455827,0.3478579653940876,1.0,0.0712470499879101,-0.256307035268612,0.3335354701654303,0.0013722797548984,-0.1406395276884213,72.15031315240084,2.0
0.1057495165366447,0.1917413581423647,0.0766872232515383,0.1046457009048391,0.0584675685310609,-1.4215348672910584,0.3298625121122973,0.1735871741794372,-1.0359776952507418,-1.0563346127357407,-0.1259732661426392,-0.0745519874321446,-0.0880111249808875,-0.1731511418500963,-0.9913959928821482,-0.4346837436269689,-0.255490701201251,0.1300779248653768,0.0139626315892989,-0.4849416043185196,0.6634457033011679,0.4661309417651025,-0.1746081206630375,-0.1780459691092562,-1.0115343467380704,-1.0,0.0712470499879101,-1.0754379844641018,-1.005760024714203,0.4879874487624862,-0.1306958552838991,87.45109489051094,0.0
0.6328508143606997,-0.4333168239447405,0.7904155279212606,0.221709809441114,-0.4717693953023336,-0.11297082578810819,0.7254051735676192,0.9238457669861498,0.021002151695171112,0.0213192812282716,-0.3208509783660436,-0.1050393127352483,-0.09473682182090813,-0.095670178505623,-0.7703797284631426,0.4172294222590001,0.2867851968001007,1.296992627510248,0.7832638707287982,-0.4733236534255848,0.4376443740003941,0.9049849160087793,-0.100059590024061,-0.07753348052611213,-1.0115343467380704,-1.0001562753118527,0.0712470499879101,0.064345224200655,-0.7678901271973133,-1.052017738751836,0.1450444567759273,84.98198661863098,0.0
-0.2454447496334521,-0.7852205631332174,0.0185661418074494,-0.6183497772472756,-0.7929316541685468,0.2655632260173811,-0.9146458669334092,-0.7510481678105284,-0.1073637358308538,-0.0963748435919499,-0.3061667332462994,-0.1010080264294662,-0.0916168053126971,0.1230633139815063,1.438265563681012,-0.5241207723178715,-0.5178698617041535,-0.8170237462979955,-0.8222767916027687,-0.825696725793746,0.7784695481681466,-0.0706047609907107,0.1553993855644465,-0.2808111899353442,1.7072502775262457,1.0,0.0712470499879101,-0.0850860148200679,1.6728309650450623,-0.5403330159678599,-0.1393601971482373,88.20673453406421,2.0
-0.0955186509603093,-0.7909463003393847,0.1834206062711061,-0.4738584506465753,-0.768135914397031,0.102916958009503,-0.960873816294424,-0.8245284964794004,-0.2271935587388473,-0.2188888320478604,-0.3267629527920766,-0.0881748352222382,-0.0866617033508831,3.5001475422559754,0.6283783781599586,-0.5215268380961834,-0.51957749135569,-0.8262355804960184,-0.8338141345183089,-0.7761188351580188,0.5842891045023254,0.2370714808601116,3.6410372156744537,-0.2705210110520822,0.8009887361048069,1.0,0.0712470499879101,-0.2100865662706978,0.7799673017919746,0.1366953727954288,-0.1404662026823195,74.17384494909945,2.0
-0.1869660550369379,-0.8571207925668621,0.1173577348993016,-0.5860998951027598,-0.8462053348493103,-0.030021439027667858,-1.0118478206146315,-0.8970088562941053,-0.3350600166537506,-0.3163099751510744,-0.3180681049263733,-0.1019886164549792,-0.09146962138363776,0.4385066388540465,1.437298272085147,-0.5262625781463246,-0.5245209663282282,-0.8357400257056053,-0.8408439348745514,-0.4424316613623451,0.5960715562956275,1.1712140872017625,0.4809307222125018,-0.28414788261671015,1.7072502775262457,1.004426527459137,0.0712470499879101,-0.4995081140164136,1.6452706329900826,-0.6343549860894655,-0.1404027825944722,88.53025936599424,2.0
0.0582000069095726,-0.2065182457867494,0.0751202333106438,-0.0884764003582262,-0.1821929902322611,0.6708842851092984,1.5573466623586756,1.6442269719372224,0.9653063719732022,0.99055504801218,-0.0694811872316612,-0.0679144528769316,-0.06624672922407325,-0.2254844867829984,-0.9907962762746882,0.2269391185686636,1.1128779230742611,0.7799757066958852,0.5923840059482361,1.9440033367612848,0.6288242964396628,0.9401582413465756,-0.2281440887913323,0.24247333357606618,-1.0115343467380704,1.0032796336446406,0.0712470499879101,1.01893131607766,-1.0220123011575144,0.6105762955867198,-0.0891258640623916,103.7137069547603,2.0
-0.366814153020193,-0.6696566182698906,-0.1232108344357601,-0.6417625989545306,-0.6878031226032102,0.4582363380525634,-0.646887397552047,-0.4581632580573968,0.0566533078707199,0.0706816160093614,-0.2920555625362945,-0.1002027064777295,-0.0914171410663577,-0.109251999966921,0.6283783781599586,-0.420184650951853,-0.4654081133148731,-0.6310562537658289,-0.6416579830084844,-0.7776523123564254,0.757040974988091,0.0021702644654689,-0.0989307497812435,-0.2595736040763675,0.8009887361048069,1.0,0.0712470499879101,0.0847175100604621,0.7799673017919746,-0.4716744111174775,-0.1315612841582224,76.8,2.0
0.514543319400281,0.8655169738509954,0.4518744738725415,1.046439251651451,0.8834495316920783,0.6610337695137674,-0.1877914312795974,-0.0893492490158677,0.2897720334503927,0.3068756709898269,1.1218429274176551,-0.063662070149558,-0.0834572527329982,-0.9294235300225924,-0.9913959928821482,-0.2460424391770001,-0.3447001005284815,-0.2746430891529102,-0.2831431070400909,-1.2340778205660072,-0.8534537331761336,0.276183739854268,-0.9353263946705732,-0.2705338395657258,-1.0115343467380704,1.0,0.0712470499879101,0.3235399699656847,-1.005760024714203,0.6790268073856823,-0.1357296370168078,93.27131782945736,2.0
-1.8331893363995924,0.8092886127187213,-1.9360401290120224,-1.127773980746444,0.4223974112538667,-0.6974097614754324,1.6494722433096034,1.2131458397381951,0.01941351660802224,0.03761688541698864,0.1302891717377016,-0.0677263197937984,-0.08381800111072465,-0.5809245633301393,-0.8080906477544676,0.085359654924976,1.7892315377420018,0.8661899318387889,0.4466299370598303,-0.384768820163421,0.3388193131646153,1.2442246786009994,-0.5975203665740006,0.11052799827482293,-1.0115343467380704,-0.832317393448528,0.0712470499879101,0.13406713465234,-0.8179791465933388,0.6137525799931446,-0.0680894782020173,122.19092331768388,0.0
1.9631088834980577,0.6325063092866002,0.8348966741980174,1.2579629147396658,0.7853475857840649,0.0630945501812305,-0.9434327564597632,-0.8338719026112449,-0.2551189574336315,-0.2474964627335769,-0.2603060050962723,-0.105735135160578,-0.0920948712317905,-0.8936527135449891,1.0333219709204853,-0.5262944285159487,-0.5253383689720879,-0.8280062272742523,-0.8303084150115148,0.1925538389685448,-2.18547536299678,-0.6781868525297783,-0.8957854693460602,-0.2856289361672875,1.2541195068155262,1.0,0.0712470499879101,-0.2393326546341827,1.2263991334185185,-1.1971483203641884,-0.1400571737817439,86.11212516297262,2.0
0.1435730244814232,1.3281134547626,-0.1789814309685073,0.4292460184295895,0.7079875802298808,-1.0096605638215346,-0.5641758515909199,-0.6685199340197068,-0.98340082174988,-1.0013227210951443,0.0760784395787708,-0.0878964181985804,-0.092647736863585,-0.8081583785044306,-0.9913959928821482,-0.4380790812938612,-0.4596612018829907,-0.2434389675727231,-0.3507895630742793,0.0145324058220721,0.5289205961050564,-0.0974747489394429,-0.8119637915738859,-0.276758644687437,-1.0115343467380704,-1.0,0.0712470499879101,-1.0179994951458278,-1.005760024714203,0.1459924206568079,-0.1367617110068078,72.0,0.0
0.8598568417780963,-0.7560941401544513,1.178316765108158,0.2487598359015099,-0.8058024673197015,0.07792544384481565,-1.0224064587527624,-0.8509846562951499,-0.24175359924900486,-0.23280008702888372,-0.2961845606701719,-0.1050421681935009,-0.086131460131782,-0.6236741733094948,1.4366215281326808,-0.5273244236285544,-0.5253169836625468,-0.847253279280604,-0.8456244890591531,-0.3433426745750436,0.9252733750612162,1.4821339863947196,-0.6165493152345709,-0.2953676291012074,1.7072502775262457,1.0061752347356934,0.0712470499879101,-0.2305635053371518,1.6690608153789286,-1.0525550838346034,-0.1402199612105347,87.1575613618369,2.0
0.746352022826274,0.2404276684642675,0.728483811848178,2.000895663390479,1.8178165158070032,1.700457423953366,-0.1579364093960726,0.1502710435569244,1.0629388781189335,1.080096512824578,-0.1258284872300113,-0.095601192926659,-0.0905229321739547,-0.7407868184311247,1.438265563681012,-0.082930110093064,-0.4162776561086436,-0.4123354010694922,-0.495824026016365,-1.1136316596753828,-2.6376816741770517,0.8685891857577112,-0.7388618566441794,-0.2678535619547493,1.7072502775262457,1.0,0.0712470499879101,1.0952824660142275,1.6728309650450623,-0.1731787747648988,-0.1300284119762708,88.1377151799687,2.0
0.2442006885872704,-0.3228197410174849,0.0839167450243019,-0.0428631585280965,-0.1333447072491387,0.9984024249544231,2.7130849371505525,2.006336307694138,1.6465803155092777,1.6423089771106656,-0.1966356459146679,-0.0430953584090762,-0.08484308050358237,1.1630348734953735,1.1516171667346653,0.0896183764603755,3.4609943738042257,2.404762451527755,1.4093539889151383,1.943220170942421,-0.0316948509976641,2.1670841184823257,1.1910053177405482,1.4182507102209452,2.1603810482369648,1.0025807395602684,0.0712470499879101,2.493996120928771,1.3477120640003728,0.9386449953088966,-0.0625994015368157,102.79158699808796,2.0
0.9082230145823592,2.123510422707524,0.7753154430362766,2.854156956219898,2.843258860172618,1.068635757599543,-0.7358685388844455,-0.4850250685421416,0.4925701730110596,0.511179300707699,4.98444937908552,1.3360347300426132,-0.0134701147872899,0.4089408372300207,-0.9913959928821482,-0.4750664185498854,-0.4936061197976519,-0.6198532939562402,-0.6740012827895699,-0.9406324814420188,-2.8910331533721174,0.2918283313051025,0.3841111047571532,-0.2642150299000009,-1.0115343467380704,1.0,0.0712470499879101,0.5289431741928422,-1.005760024714203,3.0730814758284475,-0.1409282098820331,64.66955856085737,2.0
0.7757492681228141,-0.618846119193718,1.01036393417046,0.2464966862773334,-0.6493258097970025,1.1859179825636763,-0.0067970347761168,0.5637294722892003,0.7234591113157077,0.742480000940898,-0.2827996074246205,-0.0895382920536006,-0.089858516112662,0.645770725935729,1.8432091564415387,-0.4611815995907843,-0.1999013915923116,-0.2050404681324477,-0.3434910909147308,0.3599320934927348,0.9227110113513628,1.2366578499951473,0.6606037101975146,-0.0451543962863337,2.1603810482369648,1.0,0.0712470499879101,0.7601895360740321,2.1192627966716073,0.089265464086157,-0.1189354479288453,92.94396211523284,2.0
-1.283151997016046,-0.9098567128761332,-0.9351609176733728,-1.418346227136254,-0.8913376350328867,-0.8392689032262558,-0.715391295746699,-0.6867127295404122,-0.882230230684159,-0.8956943468525627,-0.3396925274408225,-0.1084926904543168,-0.0935904491491213,-0.5535850695825342,-0.9913959928821482,-0.5070519996205144,-0.475261975461403,-0.5729299230329011,-0.6371040321811735,-0.1697495837420456,-0.4110606729044515,0.5128388069135258,-0.5556885891635251,-0.2733434314018493,-1.0115343467380704,-1.0,0.0712470499879101,-0.9079485795010992,-1.005760024714203,-3.0059397168417044,0.1696550965983623,74.95647586388816,0.0
-1.1208021161265458,0.0813460466224376,-0.9994787320655448,-0.9009740576950372,-0.1816187019814222,-0.6436991411447527,-0.0704743624055283,0.0642603087557163,-0.6191990633782876,-0.6224601181141022,-0.2260459974128745,-0.1004870746129499,-0.0925686438121456,-0.677394650682664,-0.9913959928821482,0.0050929820723958,-0.3285601033825813,0.1309455682000406,0.0059559102334435,-0.644727074789841,-0.0821167076492408,0.8201003592562105,-0.6815089889247069,-0.2484585148350299,-1.0115343467380704,-1.0,0.0712470499879101,-0.6247077139057728,-1.005760024714203,-0.4951465066170444,-0.1097806491756744,82.47507031449757,0.0
0.5390654718780461,0.4781922085089578,0.0561026735734235,1.2966250541526818,1.5725616510369698,-0.6907454955417217,0.5108537819597342,0.4251214386449133,-0.4666695454787452,-0.46353056109897456,0.23328221363769,0.7431586819569367,0.4787171504432454,3.564456639949054,-0.9868427687188839,0.3258252231846696,-0.1138947291704696,0.6910478205088112,0.4574675143565367,-0.926556399872089,-0.8547806341733808,0.33001471226709206,3.3348420386495796,0.3726479180556265,-1.0115343467380704,-1.0092248561352097,0.0712470499879101,-0.391208776905904,-1.004146929013538,2.7084098051132144,-0.1403326138293098,89.71475142624287,0.0
2.3068319371637296,-0.589343230073392,2.5989356001600625,1.552818980060953,-0.5182529619584723,-0.0223896043053131,-0.8019128815162021,-0.7970539880618307,-0.3072770750902907,-0.300986547354523,-0.2458228199728905,-0.1018908330550305,-0.0904899159749127,-0.678539900070426,1.0333219709204853,-0.5015470008507114,-0.5004963652289416,-0.7879943336425794,-0.7912647295917502,0.657751968245165,0.2184210704801514,-1.3902638008649817,-0.6732850475587309,-0.280773645846755,1.2541195068155262,1.0,0.0712470499879101,-0.2940754723489049,1.2263991334185185,-0.6243831016998677,-0.1358685818815665,80.88363729771385,2.0
-0.553418362138329,0.3954285837556823,-0.7670300196969366,-0.145782581913268,0.544788372006185,0.25012642438017063,-0.4327503727730407,0.1955907211827585,0.0982967230719113,0.09036581570339847,-0.2395762428711182,-0.0861792232878909,-0.057480555529339755,0.1218536012528867,2.474652587417839,-0.3631923085778692,-0.4958501850928094,-0.7168290401933296,-0.7422196157597587,0.3294807318142071,0.0980177693738223,0.5046996304338117,0.1438043496435604,0.09232355061845163,-0.5584035760273511,1.0019943652754868,0.0712470499879101,-0.490082774031703,-0.42364201326373396,0.2007215655508486,-0.1391521951848451,105.58754863813228,2.0
0.1197908686212662,-0.0664077852264379,0.2610578351608818,0.1699806751742215,-0.0344995647812162,-1.2543937498231186,-0.3644862361557077,-0.8646143622631746,-1.121031201774336,-1.1454998156069145,-0.2861129006769627,-0.1048437923414573,-0.0930703576247422,-0.688356711452647,0.2234347853994319,-0.4941539192226441,-0.4634224241864443,-0.5027016647289573,-0.28125146385807,0.9491435370790858,-0.565445437715913,-1.7417266449115318,-0.6876347558679935,-0.2740862049931586,0.3478579653940876,-1.0,0.0712470499879101,-1.1687164882819367,0.3335354701654303,-1.0161849688697584,-0.1196160676594154,67.29896907216495,0.0
0.1267501483899662,-0.2072235353516234,-0.2170165504429478,-0.1860343145146938,-0.0274054158002648,1.0851725960808587,0.3582667766975925,1.052225692473433,0.9063282271080291,0.9159443306546706,-0.0436917773132517,-0.0685779406649452,-0.08381915757760047,-0.3042218586978048,1.8588087618119737,1.4369548982220783,-0.0534135634975091,-0.2422001246911669,-0.3321924315101666,1.1825392299595512,-0.0378038241468668,1.1360304804234629,-0.297082639176219,-0.004488337528359518,2.1603810482369648,0.9979486704228746,0.0712470499879101,0.6064233935189299,2.12581714576818,0.5992563977216285,-0.1257324558596536,95.07565337001375,2.0
-2.227837641307243,-0.947988651083745,-1.9078343100759203,-2.174238201611221,-0.916471191422543,0.6384391165761995,3.7885530672735777,2.6699928003377487,2.636129094922383,2.581713860640691,-0.3397839938959249,-0.1041834714689279,-0.09150647343718729,4.220115429947985,-0.7941076033158129,0.5797447916028629,6.132141892869938,3.642376746867938,2.160637368353256,0.85549332966096,-0.0371589767667904,1.9393277180406874,4.038211267388292,10.508140107896628,-0.5584035760273511,-1.002375679121543,-14.0356688476182,3.365820143889028,-0.07418734824866544,-0.9073110461929657,1.7559495842057828,100.75801749271136,0.0
0.4633351446936228,-0.4832651310631246,0.5260572022107997,0.0530782201825306,-0.4324475409507745,1.1383053108909222,1.316657940563443,1.487478896199337,1.2215576923130873,1.2743745561420552,-0.2300812876843562,-0.0543760243889828,-0.08781274563487922,1.3099230832439372,1.8494502723319943,-0.3561804499205002,1.2543425765944178,1.2663643850946515,0.8353917483469342,0.9402552435604916,0.5751354237130212,1.8689876500911635,1.32093658755754,0.734870188015995,2.1603810482369648,1.0137847964781552,0.0712470499879101,1.199537783037698,2.1377941400065668,0.8084127599793379,-0.0986848562913329,98.06639912440716,2.0
-1.1528396532920957,1.2338842147181708,-1.4679374975775217,-0.7253105392470481,0.4830017125482799,-0.2474695879378564,0.2978985308111633,0.2750592174169002,-0.2163504352618517,-0.207786599835281,-0.0618882238678382,-0.1031349349451237,-0.0927412227039423,-1.0000752057901556,-0.5864524001216215,-0.0137852664520338,-0.3121950132675448,0.1633498963681232,0.3873103542036902,-0.5085816145623606,0.2442836483987075,-0.4451972432472154,-1.006798543332836,-0.2740987311699534,-0.5584035760273511,-1.0,0.0712470499879101,-0.1987424663853252,-0.559328193087658,-0.7634576070525891,-0.0911860139290919,84.63352127114301,0.0
-0.2790254590416834,-0.797225660920562,0.0313869685965867,-0.6125571918996808,-0.7978299951315847,0.1122544247089282,-0.9121624655335456,-0.7525593979457205,-0.2180289824745966,-0.2095050460078417,-0.3083285375939688,-0.098150228140843,-0.0906284192052232,0.5946148026435658,1.0333219709204853,-0.5166009638843867,-0.5150949251561432,-0.8110819045269415,-0.8199797988109,-0.6685856104936407,0.7189703448248218,0.3390102225244153,0.6405060393597974,-0.2769383810248406,1.2541195068155262,1.0,0.0712470499879101,-0.2004981337749077,1.2263991334185185,-0.3224614995899084,-0.1394539692834085,82.41185487991824,2.0
-0.0342361031652069,-0.4507971907657194,0.0536453484388389,-0.3056848797643133,-0.4341704057032913,1.1418496419890076,-0.3604163282633245,-0.0152818415814498,0.6034397220518496,0.622418225439442,-0.2458710726652103,-0.0924076151566481,-0.0881670396416069,-0.1138373509536024,1.0333219709204853,-0.260352955628422,-0.4059343578755289,-0.6011182696748191,-0.627033451064103,1.2693242050669251,0.6286332087427424,-0.0573499239287696,-0.1150018038197929,-0.2346705180210784,1.2541195068155262,1.0,0.0712470499879101,0.6403272516705755,1.2263991334185185,-0.022659252334239,-0.131351738023224,80.64106106659298,2.0
-1.7087878358582549,3.2737623113969967,-4.137589769153377,0.5473608750056608,4.611087004563888,-0.5952831338445649,0.514252392218606,0.7205485269535694,-0.3776632151884768,-0.3732898149595628,4.837545995598109,0.9808154033634332,1.90214025403154,0.0673219543093388,-0.9913959928821482,2.29964857923905,-0.1195726106760654,0.5280933822624908,0.8112094370765359,-1.9166487484106711,-2.5352959448237717,0.4019383520860967,0.0747490122939217,-0.0836589436310121,-1.0115343467380704,-1.0,0.0712470499879101,-0.368194511937718,-1.005760024714203,2.8782764096113578,-0.140475829049875,73.38842975206612,0.0
0.563306978828837,-0.4046966154498007,0.8204376306524903,0.4457616222345922,-0.2193190365659066,-0.4866834883519019,-0.9252627252415596,-0.8502540628763159,-0.6484691058091844,-0.652767432222544,-0.2868321708126949,-0.1020518790648805,-0.0912579115611686,-0.3849310322237726,1.438265563681012,-0.5203023629469989,-0.521543050460513,-0.7723111664888189,-0.774752718061788,-1.1228175413681465,-0.567146747691631,0.5934957001232716,-0.3785242271947177,-0.2839846015537405,1.7072502775262457,1.0,0.0712470499879101,-0.6560236547354052,1.6728309650450623,-0.6408840635960594,-0.1398208685974304,92.04794163626887,2.0
0.1705033892932811,0.3809734728080255,0.1545025191800521,0.4232109527651188,0.3840890067567292,0.872674794019435,0.9272067140590232,1.3955259539372102,0.8826495809633242,0.9011590272687708,0.0510875335448675,-0.0608030047292597,-0.0797039173485867,-0.3768976378981903,2.2481527492020654,-0.3093017305801891,0.7805587678568171,0.2603502989223588,0.0090872718376428,0.0210486844973647,-0.3698658794982061,1.6506124433619993,-0.3643496237114398,0.1223205918191402,-0.5584035760273511,1.0,0.0712470499879101,0.9180414133893684,-0.559328193087658,0.72150676616487,-0.1057624404911306,90.57340382269216,2.0
0.3531544130933701,1.1084249816416034,0.3224553501177503,1.7434893358978272,1.8802112451775612,-0.2629540271992029,-0.2132182680129657,0.19130902562997165,-0.24869390872704408,-0.2221142293230746,2.012314598331642,0.2055642809516869,-0.06002039041139183,-0.3108919683530142,-0.2974165269832762,-0.1892357591880873,-0.3634462795901336,-0.3376380371207574,-0.4767154253022759,-0.7560065576586448,-1.9774746518326256,-0.32006500076845146,-0.308581468234701,-0.25264641938080745,0.3478579653940876,-0.2859254049157696,0.0712470499879101,0.0089182427267728,-0.24501236593638928,2.020033450778388,-0.1402857987322309,116.93311582381727,2.0
-0.9060052135623806,1.064827205809389,-0.7585184152452594,0.1954680507036384,0.9645930833694364,-1.586927315309655,-0.3640926370303401,-0.9164578101352056,-1.3537915972873729,-1.3906144697128155,0.0599547395129601,-0.0981917082050187,-0.0900323765659983,-0.9593006887175688,0.2234347853994319,-0.1462875421379338,-0.4136115302392812,-0.596508153650309,-0.5622630688720265,3.6435255928042767,-4.178008339335281,-1.4719817797714472,-0.9636239507561184,-0.2777119986956127,0.3478579653940876,-1.0,0.0712470499879101,-1.4262950738993636,0.3335354701654303,-0.3251787589927837,-0.1270095081055734,68.23099033185262,0.0
-0.0702456794099036,-0.6794864278779021,0.2274031648393965,-0.355420286981336,-0.6613520814028058,-0.0592761741284915,-0.8422051996091583,-0.7786864940791011,-0.3370369707597367,-0.3315402104497735,-0.2779865952429045,-0.1005035617914898,-0.0904469470784832,-0.3424691719574913,-0.9913959928821482,-0.4944225993551077,-0.5203460844377858,-0.7580873783456296,-0.7785511277501459,-0.2740722868889707,0.2488261666748017,-0.3013901933960951,-0.3381416021239642,-0.2834880589752407,-1.0115343467380704,1.0,0.0712470499879101,-0.325379241239258,-1.005760024714203,-0.4965321684495995,-0.1398474635652659,85.93286494925839,2.0
0.2065274975200292,-0.0307723339836336,0.3479545500650344,0.0609453593522872,-0.2536412049689857,-1.2645606289890785,0.4754867103884544,-0.5598885223114723,-0.8674016287429314,-0.8802374365760129,-0.1422261806492333,-0.0760721545020315,-0.0894002969558893,-0.1440295468320765,-0.9913959928821482,-0.0594057043581393,0.1466509283395187,0.0418695185680121,0.9601834248230992,1.1187484399124972,0.2326521041938494,-2.133904448926619,-0.1596496365650661,-0.0106056549973202,-1.0115343467380704,-1.0,0.0712470499879101,-0.8918705398859568,-1.005760024714203,0.4565595596759306,-0.1143341060477524,70.62068965517241,0.0
